Time(s) 	 Volt (v) 
0.00000 	 89.12687 
0.00500 	 89.12687 
0.01000 	 89.12687 
0.01500 	 89.12687 
0.02000 	 89.12687 
0.02500 	 89.21631 
0.03000 	 89.12687 
0.03500 	 89.21631 
0.04000 	 89.21631 
0.04500 	 89.12687 
0.05000 	 89.12687 
0.05500 	 89.21631 
0.06000 	 89.21631 
0.06500 	 89.21631 
0.07000 	 89.12687 
0.07500 	 89.12687 
0.08000 	 89.21631 
0.08500 	 89.21631 
0.09000 	 89.12687 
0.09500 	 89.21631 
0.10000 	 89.21631 
0.10500 	 89.21631 
0.11000 	 89.21631 
0.11500 	 89.21631 
0.12000 	 89.12687 
0.12500 	 89.12687 
0.13000 	 89.12687 
0.13500 	 89.21631 
0.14000 	 89.12687 
0.14500 	 89.12687 
0.15000 	 89.12687 
0.15500 	 89.12687 
0.16000 	 89.12687 
0.16500 	 89.12687 
0.17000 	 89.21631 
0.17500 	 89.12687 
0.18000 	 89.12687 
0.18500 	 89.21631 
0.19000 	 89.21631 
0.19500 	 89.21631 
0.20000 	 89.21631 
0.20500 	 89.21631 
0.21000 	 89.21631 
0.21500 	 89.21631 
0.22000 	 89.21631 
0.22500 	 89.21631 
0.23000 	 89.21631 
0.23500 	 89.21631 
0.24000 	 89.21631 
0.24500 	 89.21631 
0.25000 	 89.21631 
0.25500 	 89.21631 
0.26000 	 89.21631 
0.26500 	 89.21631 
0.27000 	 89.21631 
0.27500 	 89.21631 
0.28000 	 89.21631 
0.28500 	 89.21631 
0.29000 	 89.21631 
0.29500 	 89.21631 
0.30000 	 89.21631 
0.30500 	 89.30575 
0.31000 	 89.21631 
0.31500 	 89.21631 
0.32000 	 89.21631 
0.32500 	 89.21631 
0.33000 	 89.21631 
0.33500 	 89.21631 
0.34000 	 89.21631 
0.34500 	 89.21631 
0.35000 	 89.21631 
0.35500 	 89.21631 
0.36000 	 89.21631 
0.36500 	 89.21631 
0.37000 	 89.21631 
0.37500 	 89.21631 
0.38000 	 89.21631 
0.38500 	 89.21631 
0.39000 	 89.30575 
0.39500 	 89.30575 
0.40000 	 89.21631 
0.40500 	 89.21631 
0.41000 	 89.21631 
0.41500 	 89.21631 
0.42000 	 89.21631 
0.42500 	 89.21631 
0.43000 	 89.21631 
0.43500 	 89.21631 
0.44000 	 89.30575 
0.44500 	 89.21631 
0.45000 	 89.30575 
0.45500 	 89.21631 
0.46000 	 89.21631 
0.46500 	 89.21631 
0.47000 	 89.21631 
0.47500 	 89.21631 
0.48000 	 89.21631 
0.48500 	 89.21631 
0.49000 	 89.30575 
0.49500 	 89.30575 
0.50000 	 89.30575 
0.50500 	 89.21631 
0.51000 	 89.21631 
0.51500 	 89.21631 
0.52000 	 89.21631 
0.52500 	 89.30575 
0.53000 	 89.21631 
0.53500 	 89.21631 
0.54000 	 89.21631 
0.54500 	 89.21631 
0.55000 	 89.21631 
0.55500 	 89.30575 
0.56000 	 89.30575 
0.56500 	 89.21631 
0.57000 	 89.21631 
0.57500 	 89.21631 
0.58000 	 89.30575 
0.58500 	 89.21631 
0.59000 	 89.21631 
0.59500 	 89.21631 
0.60000 	 89.30575 
0.60500 	 89.21631 
0.61000 	 89.30575 
0.61500 	 89.30575 
0.62000 	 89.21631 
0.62500 	 89.21631 
0.63000 	 89.30575 
0.63500 	 89.21631 
0.64000 	 89.21631 
0.64500 	 89.21631 
0.65000 	 89.21631 
0.65500 	 89.21631 
0.66000 	 89.21631 
0.66500 	 89.21631 
0.67000 	 89.21631 
0.67500 	 89.21631 
0.68000 	 89.21631 
0.68500 	 89.21631 
0.69000 	 89.21631 
0.69500 	 89.21631 
0.70000 	 89.21631 
0.70500 	 89.21631 
0.71000 	 89.21631 
0.71500 	 89.21631 
0.72000 	 89.21631 
0.72500 	 89.21631 
0.73000 	 89.21631 
0.73500 	 89.12687 
0.74000 	 89.12687 
0.74500 	 89.12687 
0.75000 	 89.21631 
0.75500 	 89.21631 
0.76000 	 89.12687 
0.76500 	 89.12687 
0.77000 	 89.12687 
0.77500 	 89.12687 
0.78000 	 89.12687 
0.78500 	 89.12687 
0.79000 	 89.12687 
0.79500 	 89.21631 
0.80000 	 89.12687 
0.80500 	 89.12687 
0.81000 	 89.21631 
0.81500 	 89.12687 
0.82000 	 89.21631 
0.82500 	 89.21631 
0.83000 	 89.21631 
0.83500 	 89.12687 
0.84000 	 89.12687 
0.84500 	 89.12687 
0.85000 	 89.12687 
0.85500 	 89.21631 
0.86000 	 89.21631 
0.86500 	 89.12687 
0.87000 	 89.12687 
0.87500 	 89.12687 
0.88000 	 89.12687 
0.88500 	 89.12687 
0.89000 	 89.12687 
0.89500 	 89.12687 
0.90000 	 89.12687 
0.90500 	 89.12687 
0.91000 	 89.12687 
0.91500 	 89.12687 
0.92000 	 89.12687 
0.92500 	 89.12687 
0.93000 	 89.12687 
0.93500 	 89.12687 
0.94000 	 89.12687 
0.94500 	 89.12687 
0.95000 	 89.12687 
0.95500 	 89.12687 
0.96000 	 89.12687 
0.96500 	 89.12687 
0.97000 	 89.12687 
0.97500 	 89.12687 
0.98000 	 89.12687 
0.98500 	 89.12687 
0.99000 	 89.12687 
0.99500 	 89.21631 
1.00000 	 89.12687 
1.00500 	 89.21631 
1.01000 	 89.12687 
1.01500 	 89.12687 
1.02000 	 89.12687 
1.02500 	 89.21631 
1.03000 	 89.21631 
1.03500 	 89.21631 
1.04000 	 89.12687 
1.04500 	 89.21631 
1.05000 	 89.12687 
1.05500 	 89.12687 
1.06000 	 89.12687 
1.06500 	 89.12687 
1.07000 	 89.12687 
1.07500 	 89.21631 
1.08000 	 89.21631 
1.08500 	 89.21631 
1.09000 	 89.12687 
1.09500 	 89.12687 
1.10000 	 89.21631 
1.10500 	 89.12687 
1.11000 	 89.12687 
1.11500 	 89.12687 
1.12000 	 89.12687 
1.12500 	 89.12687 
1.13000 	 89.12687 
1.13500 	 89.12687 
1.14000 	 89.12687 
1.14500 	 89.12687 
1.15000 	 89.12687 
1.15500 	 89.12687 
1.16000 	 89.12687 
1.16500 	 89.12687 
1.17000 	 89.12687 
1.17500 	 89.12687 
1.18000 	 89.12687 
1.18500 	 89.12687 
1.19000 	 89.12687 
1.19500 	 89.12687 
1.20000 	 89.12687 
1.20500 	 89.12687 
1.21000 	 89.21631 
1.21500 	 89.12687 
1.22000 	 89.12687 
1.22500 	 89.12687 
1.23000 	 89.12687 
1.23500 	 89.12687 
1.24000 	 89.21631 
1.24500 	 89.12687 
1.25000 	 89.21631 
1.25500 	 89.12687 
1.26000 	 89.12687 
1.26500 	 89.12687 
1.27000 	 89.12687 
1.27500 	 89.12687 
1.28000 	 89.12687 
1.28500 	 89.12687 
1.29000 	 89.21631 
1.29500 	 89.21631 
1.30000 	 89.21631 
1.30500 	 89.12687 
1.31000 	 89.21631 
1.31500 	 89.21631 
1.32000 	 89.21631 
1.32500 	 89.21631 
1.33000 	 89.21631 
1.33500 	 89.21631 
1.34000 	 89.12687 
1.34500 	 89.12687 
1.35000 	 89.21631 
1.35500 	 89.21631 
1.36000 	 89.21631 
1.36500 	 89.21631 
1.37000 	 89.21631 
1.37500 	 89.21631 
1.38000 	 89.21631 
1.38500 	 89.21631 
1.39000 	 89.21631 
1.39500 	 89.12687 
1.40000 	 89.21631 
1.40500 	 89.21631 
1.41000 	 89.21631 
1.41500 	 89.21631 
1.42000 	 89.21631 
1.42500 	 89.21631 
1.43000 	 89.21631 
1.43500 	 89.21631 
1.44000 	 89.21631 
1.44500 	 89.21631 
1.45000 	 89.21631 
1.45500 	 89.21631 
1.46000 	 89.21631 
1.46500 	 89.21631 
1.47000 	 89.21631 
1.47500 	 89.21631 
1.48000 	 89.21631 
1.48500 	 89.21631 
1.49000 	 89.21631 
1.49500 	 89.21631 
1.50000 	 89.21631 
1.50500 	 89.21631 
1.51000 	 89.21631 
1.51500 	 89.21631 
1.52000 	 89.21631 
1.52500 	 89.21631 
1.53000 	 89.21631 
1.53500 	 89.21631 
1.54000 	 89.21631 
1.54500 	 89.21631 
1.55000 	 89.21631 
1.55500 	 89.21631 
1.56000 	 89.21631 
1.56500 	 89.21631 
1.57000 	 89.21631 
1.57500 	 89.21631 
1.58000 	 89.21631 
1.58500 	 89.21631 
1.59000 	 89.21631 
1.59500 	 89.21631 
1.60000 	 89.21631 
1.60500 	 89.12687 
1.61000 	 89.21631 
1.61500 	 89.21631 
1.62000 	 89.12687 
1.62500 	 89.21631 
1.63000 	 89.21631 
1.63500 	 89.21631 
1.64000 	 89.12687 
1.64500 	 89.21631 
1.65000 	 89.12687 
1.65500 	 89.12687 
1.66000 	 89.12687 
1.66500 	 89.12687 
1.67000 	 89.12687 
1.67500 	 89.12687 
1.68000 	 89.12687 
1.68500 	 89.12687 
1.69000 	 89.12687 
1.69500 	 89.12687 
1.70000 	 89.12687 
1.70500 	 89.12687 
1.71000 	 89.12687 
1.71500 	 89.12687 
1.72000 	 89.12687 
1.72500 	 89.12687 
1.73000 	 89.12687 
1.73500 	 89.12687 
1.74000 	 89.12687 
1.74500 	 89.12687 
1.75000 	 89.12687 
1.75500 	 89.12687 
1.76000 	 89.21631 
1.76500 	 89.21631 
1.77000 	 89.21631 
1.77500 	 89.21631 
1.78000 	 89.12687 
1.78500 	 89.21631 
1.79000 	 89.30575 
1.79500 	 89.30575 
1.80000 	 89.21631 
1.80500 	 89.21631 
1.81000 	 89.30575 
1.81500 	 89.30575 
1.82000 	 89.30575 
1.82500 	 89.39518 
1.83000 	 89.39518 
1.83500 	 89.57405 
1.84000 	 89.66349 
1.84500 	 89.93180 
1.85000 	 89.93180 
1.85500 	 90.02123 
1.86000 	 90.02123 
1.86500 	 89.84236 
1.87000 	 89.75293 
1.87500 	 89.48462 
1.88000 	 89.21631 
1.88500 	 88.85857 
1.89000 	 88.50082 
1.89500 	 87.87477 
1.90000 	 87.24872 
1.90500 	 86.71210 
1.91000 	 85.99662 
1.91500 	 85.28113 
1.92000 	 84.47620 
1.92500 	 83.58184 
1.93000 	 82.59805 
1.93500 	 81.61425 
1.94000 	 80.63046 
1.94500 	 79.37835 
1.95000 	 78.21569 
1.95500 	 77.05302 
1.96000 	 75.71148 
1.96500 	 74.28050 
1.97000 	 72.84953 
1.97500 	 71.15024 
1.98000 	 69.71927 
1.98500 	 68.01998 
1.99000 	 66.14183 
1.99500 	 64.53198 
2.00000 	 62.74326 
2.00500 	 60.68624 
2.01000 	 58.89752 
2.01500 	 56.75105 
2.02000 	 54.78346 
2.02500 	 52.63700 
2.03000 	 50.22223 
2.03500 	 48.16520 
2.04000 	 45.83986 
2.04500 	 43.60396 
2.05000 	 41.18919 
2.05500 	 38.59555 
2.06000 	 36.27021 
2.06500 	 33.76601 
2.07000 	 31.26180 
2.07500 	 28.66816 
2.08000 	 26.16395 
2.08500 	 23.39143 
2.09000 	 20.79779 
2.09500 	 18.29358 
2.10000 	 15.61051 
2.10500 	 12.83799 
2.11000 	 10.42322 
2.11500 	 7.74014 
2.12000 	 4.87819 
2.12500 	 2.28455 
2.13000 	 -0.48797 
2.13500 	 -3.17105 
2.14000 	 -5.67526 
2.14500 	 -8.35834 
2.15000 	 -10.68367 
2.15500 	 -13.45619 
2.16000 	 -16.04983 
2.16500 	 -18.91178 
2.17000 	 -21.23712 
2.17500 	 -23.65189 
2.18000 	 -26.15609 
2.18500 	 -28.74974 
2.19000 	 -31.07507 
2.19500 	 -33.31097 
2.20000 	 -35.45743 
2.20500 	 -37.69333 
2.21000 	 -39.92923 
2.21500 	 -42.25457 
2.22000 	 -44.13272 
2.22500 	 -46.18975 
2.23000 	 -48.06791 
2.23500 	 -49.94606 
2.24000 	 -51.91365 
2.24500 	 -53.70237 
2.25000 	 -55.49109 
2.25500 	 -57.27981 
2.26000 	 -58.62135 
2.26500 	 -60.49951 
2.27000 	 -62.01992 
2.27500 	 -63.45089 
2.28000 	 -64.79243 
2.28500 	 -65.86567 
2.29000 	 -67.47551 
2.29500 	 -68.45931 
2.30000 	 -69.89028 
2.30500 	 -70.87408 
2.31000 	 -71.85788 
2.31500 	 -73.02054 
2.32000 	 -73.64659 
2.32500 	 -74.45152 
2.33000 	 -75.43531 
2.33500 	 -76.06137 
2.34000 	 -76.86629 
2.34500 	 -77.31347 
2.35000 	 -77.93952 
2.35500 	 -78.47614 
2.36000 	 -78.92332 
2.36500 	 -79.19163 
2.37000 	 -79.37050 
2.37500 	 -79.54937 
2.38000 	 -79.72824 
2.38500 	 -79.81768 
2.39000 	 -79.90711 
2.39500 	 -79.81768 
2.40000 	 -79.72824 
2.40500 	 -79.63880 
2.41000 	 -79.54937 
2.41500 	 -79.19163 
2.42000 	 -79.01275 
2.42500 	 -78.65501 
2.43000 	 -78.20783 
2.43500 	 -77.58178 
2.44000 	 -77.13460 
2.44500 	 -76.41911 
2.45000 	 -75.70362 
2.45500 	 -74.98813 
2.46000 	 -74.09377 
2.46500 	 -73.37829 
2.47000 	 -72.66280 
2.47500 	 -71.50013 
2.48000 	 -70.60577 
2.48500 	 -69.44310 
2.49000 	 -68.10156 
2.49500 	 -67.02833 
2.50000 	 -65.68679 
2.50500 	 -64.43469 
2.51000 	 -63.00371 
2.51500 	 -61.84105 
2.52000 	 -60.23120 
2.52500 	 -58.35304 
2.53000 	 -57.01150 
2.53500 	 -55.22278 
2.54000 	 -53.34463 
2.54500 	 -51.82422 
2.55000 	 -49.94606 
2.55500 	 -48.06791 
2.56000 	 -46.18975 
2.56500 	 -44.22216 
2.57000 	 -42.34400 
2.57500 	 -40.10811 
2.58000 	 -38.05108 
2.58500 	 -35.90461 
2.59000 	 -33.75815 
2.59500 	 -31.43282 
2.60000 	 -29.10748 
2.60500 	 -26.87158 
2.61000 	 -24.27794 
2.61500 	 -21.95260 
2.62000 	 -19.62727 
2.62500 	 -17.03362 
2.63000 	 -14.97660 
2.63500 	 -11.93577 
2.64000 	 -9.78931 
2.64500 	 -7.10623 
2.65000 	 -4.69146 
2.65500 	 -1.91895 
2.66000 	 0.67470 
2.66500 	 3.00003 
2.67000 	 5.59368 
2.67500 	 8.09788 
2.68000 	 10.78096 
2.68500 	 13.19573 
2.69000 	 15.61051 
2.69500 	 18.20415 
2.70000 	 20.52948 
2.70500 	 22.94425 
2.71000 	 25.26959 
2.71500 	 27.68436 
2.72000 	 30.18857 
2.72500 	 32.51390 
2.73000 	 34.66037 
2.73500 	 37.07514 
2.74000 	 39.40047 
2.74500 	 41.54694 
2.75000 	 43.60396 
2.75500 	 45.66099 
2.76000 	 47.44971 
2.76500 	 49.68561 
2.77000 	 51.29546 
2.77500 	 53.44192 
2.78000 	 55.23064 
2.78500 	 56.84049 
2.79000 	 58.62921 
2.79500 	 60.23906 
2.80000 	 61.49116 
2.80500 	 63.19044 
2.81000 	 64.80029 
2.81500 	 66.05239 
2.82000 	 67.48337 
2.82500 	 68.55660 
2.83000 	 69.98758 
2.83500 	 70.79250 
2.84000 	 72.13404 
2.84500 	 73.02840 
2.85000 	 73.92276 
2.85500 	 74.72768 
2.86000 	 75.71148 
2.86500 	 76.42697 
2.87000 	 77.05302 
2.87500 	 77.67907 
2.88000 	 78.30512 
2.88500 	 78.66287 
2.89000 	 79.02061 
2.89500 	 79.46779 
2.90000 	 79.73610 
2.90500 	 79.91497 
2.91000 	 80.09384 
2.91500 	 80.27271 
2.92000 	 80.27271 
2.92500 	 80.18328 
2.93000 	 80.00440 
2.93500 	 79.82553 
2.94000 	 79.64666 
2.94500 	 79.19948 
2.95000 	 78.84174 
2.95500 	 78.57343 
2.96000 	 78.12625 
2.96500 	 77.50020 
2.97000 	 76.87415 
2.97500 	 76.24809 
2.98000 	 75.53261 
2.98500 	 74.63825 
2.99000 	 73.74389 
2.99500 	 72.93896 
3.00000 	 71.95517 
3.00500 	 70.70306 
3.01000 	 69.98758 
3.01500 	 68.46716 
3.02000 	 67.30450 
3.02500 	 66.05239 
3.03000 	 64.80029 
3.03500 	 63.27988 
3.04000 	 61.58059 
3.04500 	 60.32849 
3.05000 	 58.71864 
3.05500 	 57.01936 
3.06000 	 55.40951 
3.06500 	 53.71023 
3.07000 	 51.74264 
3.07500 	 49.86448 
3.08000 	 48.16520 
3.08500 	 46.10817 
3.09000 	 44.14058 
3.09500 	 41.99412 
3.10000 	 40.02653 
3.10500 	 37.70119 
3.11000 	 35.82303 
3.11500 	 33.49770 
3.12000 	 31.44067 
3.12500 	 28.93647 
3.13000 	 26.70057 
3.13500 	 24.55410 
3.14000 	 22.22877 
3.14500 	 19.63512 
3.15000 	 17.30979 
3.15500 	 15.07389 
3.16000 	 12.48025 
3.16500 	 10.15491 
3.17000 	 7.82958 
3.17500 	 5.23593 
3.18000 	 2.82116 
3.18500 	 0.58526 
3.19000 	 -1.82951 
3.19500 	 -4.33372 
3.20000 	 -6.83792 
3.20500 	 -9.07382 
3.21000 	 -11.39916 
3.21500 	 -13.90337 
3.22000 	 -15.96039 
3.22500 	 -18.46460 
3.23000 	 -20.52163 
3.23500 	 -23.02583 
3.24000 	 -25.08286 
3.24500 	 -27.40820 
3.25000 	 -29.37579 
3.25500 	 -31.43282 
3.26000 	 -33.66872 
3.26500 	 -35.36800 
3.27000 	 -37.42503 
3.27500 	 -39.39262 
3.28000 	 -41.09190 
3.28500 	 -42.88062 
3.29000 	 -44.66934 
3.29500 	 -46.63693 
3.30000 	 -47.88903 
3.30500 	 -49.40945 
3.31000 	 -50.84042 
3.31500 	 -52.53971 
3.32000 	 -54.06012 
3.32500 	 -55.31222 
3.33000 	 -56.56432 
3.33500 	 -57.81643 
3.34000 	 -58.97910 
3.34500 	 -60.23120 
3.35000 	 -61.57274 
3.35500 	 -62.19879 
3.36000 	 -63.27202 
3.36500 	 -64.25582 
3.37000 	 -64.88187 
3.37500 	 -65.59736 
3.38000 	 -66.31285 
3.38500 	 -67.11777 
3.39000 	 -67.65438 
3.39500 	 -68.01213 
3.40000 	 -68.45931 
3.40500 	 -69.17480 
3.41000 	 -69.44310 
3.41500 	 -69.80085 
3.42000 	 -70.06916 
3.42500 	 -70.24803 
3.43000 	 -70.33746 
3.43500 	 -70.42690 
3.44000 	 -70.42690 
3.44500 	 -70.33746 
3.45000 	 -70.24803 
3.45500 	 -70.06916 
3.46000 	 -69.80085 
3.46500 	 -69.35367 
3.47000 	 -68.99592 
3.47500 	 -68.36987 
3.48000 	 -67.92269 
3.48500 	 -67.56495 
3.49000 	 -67.02833 
3.49500 	 -66.13397 
3.50000 	 -65.50792 
3.50500 	 -64.88187 
3.51000 	 -64.25582 
3.51500 	 -63.18259 
3.52000 	 -62.10935 
3.52500 	 -61.57274 
3.53000 	 -60.23120 
3.53500 	 -59.06853 
3.54000 	 -57.81643 
3.54500 	 -56.83263 
3.55000 	 -55.49109 
3.55500 	 -54.23899 
3.56000 	 -52.80801 
3.56500 	 -51.37704 
3.57000 	 -49.85663 
3.57500 	 -48.33621 
3.58000 	 -46.99468 
3.58500 	 -45.11652 
3.59000 	 -43.50667 
3.59500 	 -41.89682 
3.60000 	 -40.10811 
3.60500 	 -38.31939 
3.61000 	 -36.53067 
3.61500 	 -34.65251 
3.62000 	 -32.68492 
3.62500 	 -30.89620 
3.63000 	 -28.83917 
3.63500 	 -26.78215 
3.64000 	 -24.36737 
3.64500 	 -22.22091 
3.65000 	 -20.07445 
3.65500 	 -18.10686 
3.66000 	 -15.69208 
3.66500 	 -13.90337 
3.67000 	 -11.39916 
3.67500 	 -9.25269 
3.68000 	 -7.01680 
3.68500 	 -4.87033 
3.69000 	 -2.36613 
3.69500 	 -0.21966 
3.70000 	 2.01624 
3.70500 	 4.43101 
3.71000 	 6.66691 
3.71500 	 8.81337 
3.72000 	 11.04927 
3.72500 	 13.28517 
3.73000 	 15.52107 
3.73500 	 17.66753 
3.74000 	 19.72456 
3.74500 	 22.31820 
3.75000 	 24.37523 
3.75500 	 26.43226 
3.76000 	 28.31041 
3.76500 	 30.54631 
3.77000 	 32.42447 
3.77500 	 34.39206 
3.78000 	 36.44909 
3.78500 	 38.14837 
3.79000 	 40.11596 
3.79500 	 41.90468 
3.80000 	 43.87227 
3.80500 	 45.39268 
3.81000 	 46.91310 
3.81500 	 48.79125 
3.82000 	 50.13279 
3.82500 	 51.65320 
3.83000 	 53.26305 
3.83500 	 54.60459 
3.84000 	 55.94613 
3.84500 	 57.10880 
3.85000 	 58.53977 
3.85500 	 59.43413 
3.86000 	 60.59680 
3.86500 	 61.49116 
3.87000 	 62.56439 
3.87500 	 63.63762 
3.88000 	 64.62142 
3.88500 	 65.24747 
3.89000 	 66.05239 
3.89500 	 66.58901 
3.90000 	 67.30450 
3.90500 	 67.93055 
3.91000 	 68.37773 
3.91500 	 68.73547 
3.92000 	 69.27209 
3.92500 	 69.62983 
3.93000 	 69.89814 
3.93500 	 70.07701 
3.94000 	 70.16645 
3.94500 	 70.16645 
3.95000 	 70.16645 
3.95500 	 70.16645 
3.96000 	 69.98758 
3.96500 	 69.89814 
3.97000 	 69.62983 
3.97500 	 69.18265 
3.98000 	 68.64604 
3.98500 	 68.28829 
3.99000 	 67.93055 
3.99500 	 67.39393 
4.00000 	 66.58901 
4.00500 	 66.05239 
4.01000 	 65.24747 
4.01500 	 64.71085 
4.02000 	 63.63762 
4.02500 	 62.56439 
4.03000 	 61.58059 
4.03500 	 60.68624 
4.04000 	 59.52357 
4.04500 	 58.62921 
4.05000 	 57.37710 
4.05500 	 56.12500 
4.06000 	 55.05177 
4.06500 	 53.71023 
4.07000 	 52.01095 
4.07500 	 50.66941 
4.08000 	 49.23843 
4.08500 	 47.44971 
4.09000 	 45.92930 
4.09500 	 44.31945 
4.10000 	 42.62017 
4.10500 	 40.92089 
4.11000 	 39.22160 
4.11500 	 37.25401 
4.12000 	 35.37585 
4.12500 	 33.58714 
4.13000 	 31.61954 
4.13500 	 29.65195 
4.14000 	 27.59493 
4.14500 	 25.62733 
4.15000 	 23.57031 
4.15500 	 21.69215 
4.16000 	 19.54569 
4.16500 	 17.39922 
4.17000 	 15.34220 
4.17500 	 13.19573 
4.18000 	 10.95983 
4.18500 	 8.81337 
4.19000 	 6.84578 
4.19500 	 4.60988 
4.20000 	 2.46342 
4.20500 	 0.49583 
4.21000 	 -1.65064 
4.21500 	 -3.79710 
4.22000 	 -6.03300 
4.22500 	 -8.17946 
4.23000 	 -10.23649 
4.23500 	 -12.11465 
4.24000 	 -14.70829 
4.24500 	 -16.31814 
4.25000 	 -18.46460 
4.25500 	 -20.16388 
4.26000 	 -22.22091 
4.26500 	 -24.09907 
4.27000 	 -26.24553 
4.27500 	 -28.21312 
4.28000 	 -29.82297 
4.28500 	 -31.61169 
4.29000 	 -33.40041 
4.29500 	 -35.01025 
4.30000 	 -36.70954 
4.30500 	 -38.22995 
4.31000 	 -39.75036 
4.31500 	 -41.18134 
4.32000 	 -42.70175 
4.32500 	 -44.04329 
4.33000 	 -45.29539 
4.33500 	 -46.99468 
4.34000 	 -47.79960 
4.34500 	 -48.87283 
4.35000 	 -50.39324 
4.35500 	 -51.28760 
4.36000 	 -52.36083 
4.36500 	 -53.16576 
4.37000 	 -54.23899 
4.37500 	 -55.13335 
4.38000 	 -55.93827 
4.38500 	 -56.65376 
4.39000 	 -57.36925 
4.39500 	 -57.90586 
4.40000 	 -58.44248 
4.40500 	 -59.06853 
4.41000 	 -59.51571 
4.41500 	 -60.14176 
4.42000 	 -60.49951 
4.42500 	 -60.85725 
4.43000 	 -61.12556 
4.43500 	 -61.39387 
4.44000 	 -61.57274 
4.44500 	 -61.57274 
4.45000 	 -61.66217 
4.45500 	 -61.57274 
4.46000 	 -61.48330 
4.46500 	 -61.21499 
4.47000 	 -60.94669 
4.47500 	 -60.76781 
4.48000 	 -60.32063 
4.48500 	 -59.96289 
4.49000 	 -59.42628 
4.49500 	 -58.88966 
4.50000 	 -58.35304 
4.50500 	 -57.72699 
4.51000 	 -57.27981 
4.51500 	 -56.47489 
4.52000 	 -55.84884 
4.52500 	 -54.95448 
4.53000 	 -54.23899 
4.53500 	 -52.98689 
4.54000 	 -52.18196 
4.54500 	 -51.19817 
4.55000 	 -50.30381 
4.55500 	 -48.87283 
4.56000 	 -47.88903 
4.56500 	 -46.99468 
4.57000 	 -45.38483 
4.57500 	 -44.22216 
4.58000 	 -42.79118 
4.58500 	 -41.44964 
4.59000 	 -40.01867 
4.59500 	 -38.58769 
4.60000 	 -37.06728 
4.60500 	 -35.36800 
4.61000 	 -34.11590 
4.61500 	 -32.32718 
4.62000 	 -30.80676 
4.62500 	 -28.83917 
4.63000 	 -27.05045 
4.63500 	 -25.17230 
4.64000 	 -23.38358 
4.64500 	 -21.59486 
4.65000 	 -19.71670 
4.65500 	 -17.74911 
4.66000 	 -15.69208 
4.66500 	 -14.17167 
4.67000 	 -11.84634 
4.67500 	 -10.14705 
4.68000 	 -8.09003 
4.68500 	 -6.03300 
4.69000 	 -4.06541 
4.69500 	 -2.00838 
4.70000 	 -0.13023 
4.70500 	 1.83737 
4.71000 	 4.07326 
4.71500 	 5.95142 
4.72000 	 8.00845 
4.72500 	 9.79717 
4.73000 	 11.94363 
4.73500 	 13.73235 
4.74000 	 15.69994 
4.74500 	 17.66753 
4.75000 	 19.54569 
4.75500 	 21.51328 
4.76000 	 23.30200 
4.76500 	 25.09072 
4.77000 	 26.87944 
4.77500 	 28.75759 
4.78000 	 30.54631 
4.78500 	 32.24560 
4.79000 	 33.94488 
4.79500 	 35.55473 
4.80000 	 37.16457 
4.80500 	 38.41668 
4.81000 	 40.11596 
4.81500 	 41.63637 
4.82000 	 43.24622 
4.82500 	 44.40889 
4.83000 	 45.75043 
4.83500 	 46.82366 
4.84000 	 48.34407 
4.84500 	 49.41730 
4.85000 	 50.40110 
4.85500 	 51.47433 
4.86000 	 52.45813 
4.86500 	 53.71023 
4.87000 	 54.42572 
4.87500 	 55.40951 
4.88000 	 56.03556 
4.88500 	 56.75105 
4.89000 	 57.37710 
4.89500 	 58.27146 
4.90000 	 58.71864 
4.90500 	 59.07639 
4.91000 	 59.43413 
4.91500 	 59.97075 
4.92000 	 60.32849 
4.92500 	 60.50736 
4.93000 	 60.68624 
4.93500 	 60.77567 
4.94000 	 60.77567 
4.94500 	 60.86511 
4.95000 	 60.77567 
4.95500 	 60.77567 
4.96000 	 60.68624 
4.96500 	 60.50736 
4.97000 	 60.41793 
4.97500 	 60.06018 
4.98000 	 59.52357 
4.98500 	 59.16582 
4.99000 	 58.89752 
4.99500 	 58.45034 
5.00000 	 57.73485 
5.00500 	 57.01936 
5.01000 	 56.30387 
5.01500 	 55.67782 
5.02000 	 55.05177 
5.02500 	 54.06797 
5.03000 	 53.08418 
5.03500 	 52.01095 
5.04000 	 51.02715 
5.04500 	 50.04335 
5.05000 	 49.05956 
5.05500 	 47.71802 
5.06000 	 46.55535 
5.06500 	 45.30325 
5.07000 	 44.14058 
5.07500 	 42.70960 
5.08000 	 41.36807 
5.08500 	 39.93709 
5.09000 	 38.23781 
5.09500 	 36.89627 
5.10000 	 35.19698 
5.10500 	 33.76601 
5.11000 	 32.24560 
5.11500 	 30.63575 
5.12000 	 28.75759 
5.12500 	 27.05831 
5.13000 	 25.26959 
5.13500 	 23.57031 
5.14000 	 22.13933 
5.14500 	 19.81400 
5.15000 	 18.29358 
5.15500 	 16.32599 
5.16000 	 14.44784 
5.16500 	 12.56968 
5.17000 	 10.87040 
5.17500 	 8.90281 
5.18000 	 7.11409 
5.18500 	 5.14650 
5.19000 	 3.26834 
5.19500 	 1.39019 
5.20000 	 -0.75628 
5.20500 	 -2.27669 
5.21000 	 -4.24428 
5.21500 	 -6.12244 
5.22000 	 -8.00059 
5.22500 	 -9.96818 
5.23000 	 -11.48859 
5.23500 	 -13.36675 
5.24000 	 -15.15547 
5.24500 	 -16.94419 
5.25000 	 -18.91178 
5.25500 	 -20.16388 
5.26000 	 -21.95260 
5.26500 	 -23.56245 
5.27000 	 -25.17230 
5.27500 	 -26.96102 
5.28000 	 -28.57086 
5.28500 	 -30.09128 
5.29000 	 -31.43282 
5.29500 	 -32.86379 
5.30000 	 -34.38420 
5.30500 	 -35.45743 
5.31000 	 -36.88841 
5.31500 	 -38.14051 
5.32000 	 -39.30318 
5.32500 	 -40.28698 
5.33000 	 -41.53908 
5.33500 	 -42.61231 
5.34000 	 -43.59611 
5.34500 	 -44.57990 
5.35000 	 -45.47426 
5.35500 	 -46.72637 
5.36000 	 -47.17355 
5.36500 	 -47.88903 
5.37000 	 -48.51509 
5.37500 	 -49.23057 
5.38000 	 -50.03550 
5.38500 	 -50.57211 
5.39000 	 -50.92986 
5.39500 	 -51.37704 
5.40000 	 -51.91365 
5.40500 	 -52.27140 
5.41000 	 -52.53971 
5.41500 	 -52.80801 
5.42000 	 -52.89745 
5.42500 	 -52.98689 
5.43000 	 -53.07632 
5.43500 	 -53.07632 
5.44000 	 -53.07632 
5.44500 	 -52.98689 
5.45000 	 -52.89745 
5.45500 	 -52.80801 
5.46000 	 -52.62914 
5.46500 	 -52.45027 
5.47000 	 -52.18196 
5.47500 	 -51.73478 
5.48000 	 -51.37704 
5.48500 	 -50.75099 
5.49000 	 -50.48268 
5.49500 	 -49.76719 
5.50000 	 -48.87283 
5.50500 	 -48.42565 
5.51000 	 -47.71016 
5.51500 	 -47.08411 
5.52000 	 -46.27919 
5.52500 	 -45.29539 
5.53000 	 -44.40103 
5.53500 	 -43.50667 
5.54000 	 -42.52288 
5.54500 	 -41.36021 
5.55000 	 -40.28698 
5.55500 	 -39.30318 
5.56000 	 -38.05108 
5.56500 	 -36.88841 
5.57000 	 -35.54687 
5.57500 	 -34.56308 
5.58000 	 -33.04266 
5.58500 	 -31.70112 
5.59000 	 -30.53846 
5.59500 	 -28.83917 
5.60000 	 -27.40820 
5.60500 	 -25.88779 
5.61000 	 -24.18850 
5.61500 	 -22.75753 
5.62000 	 -21.14768 
5.62500 	 -19.53783 
5.63000 	 -17.83855 
5.63500 	 -16.04983 
5.64000 	 -14.79773 
5.64500 	 -12.56183 
5.65000 	 -10.95198 
5.65500 	 -9.43157 
5.66000 	 -7.73228 
5.66500 	 -5.85413 
5.67000 	 -4.06541 
5.67500 	 -2.27669 
5.68000 	 -0.75628 
5.68500 	 1.21131 
5.69000 	 2.82116 
5.69500 	 4.69932 
5.70000 	 6.39860 
5.70500 	 8.18732 
5.71000 	 9.79717 
5.71500 	 11.40701 
5.72000 	 13.28517 
5.72500 	 15.07389 
5.73000 	 16.59430 
5.73500 	 18.38302 
5.74000 	 19.72456 
5.74500 	 21.69215 
5.75000 	 23.12313 
5.75500 	 24.82241 
5.76000 	 26.43226 
5.76500 	 27.68436 
5.77000 	 29.11534 
5.77500 	 30.81462 
5.78000 	 32.24560 
5.78500 	 33.49770 
5.79000 	 34.57093 
5.79500 	 36.27021 
5.80000 	 37.34345 
5.80500 	 38.32724 
5.81000 	 39.84765 
5.81500 	 40.83145 
5.82000 	 41.90468 
5.82500 	 43.06735 
5.83000 	 43.96171 
5.83500 	 44.85607 
5.84000 	 45.66099 
5.84500 	 46.55535 
5.85000 	 47.18140 
5.85500 	 48.16520 
5.86000 	 48.88069 
5.86500 	 49.50674 
5.87000 	 49.95392 
5.87500 	 50.49053 
5.88000 	 50.93771 
5.88500 	 51.38489 
5.89000 	 51.74264 
5.89500 	 52.10038 
5.90000 	 52.27925 
5.90500 	 52.72643 
5.91000 	 52.81587 
5.91500 	 52.90531 
5.92000 	 52.99474 
5.92500 	 52.99474 
5.93000 	 52.90531 
5.93500 	 52.81587 
5.94000 	 52.72643 
5.94500 	 52.36869 
5.95000 	 52.10038 
5.95500 	 51.74264 
5.96000 	 51.38489 
5.96500 	 50.93771 
5.97000 	 50.57997 
5.97500 	 50.04335 
5.98000 	 49.68561 
5.98500 	 49.05956 
5.99000 	 48.34407 
5.99500 	 47.44971 
6.00000 	 46.73422 
6.00500 	 46.01874 
6.01000 	 45.12438 
6.01500 	 44.23002 
6.02000 	 43.42509 
6.02500 	 42.35186 
6.03000 	 41.36807 
6.03500 	 40.20540 
6.04000 	 39.22160 
6.04500 	 37.88006 
6.05000 	 36.80683 
6.05500 	 35.55473 
6.06000 	 34.30262 
6.06500 	 33.05052 
6.07000 	 31.61954 
6.07500 	 30.36744 
6.08000 	 28.93647 
6.08500 	 27.41605 
6.09000 	 26.25339 
6.09500 	 24.73297 
6.10000 	 23.03369 
6.10500 	 21.69215 
6.11000 	 19.81400 
6.11500 	 18.47246 
6.12000 	 16.86261 
6.12500 	 15.43163 
6.13000 	 13.64291 
6.13500 	 12.03307 
6.14000 	 10.60209 
6.14500 	 8.72394 
6.15000 	 7.20352 
6.15500 	 5.50424 
6.16000 	 3.98383 
6.16500 	 2.19511 
6.17000 	 0.67470 
6.17500 	 -1.11402 
6.18000 	 -2.81331 
6.18500 	 -4.33372 
6.19000 	 -6.03300 
6.19500 	 -7.64285 
6.20000 	 -9.07382 
6.20500 	 -10.59423 
6.21000 	 -12.20408 
6.21500 	 -13.90337 
6.22000 	 -15.24491 
6.22500 	 -16.85475 
6.23000 	 -18.46460 
6.23500 	 -19.89558 
6.24000 	 -21.32655 
6.24500 	 -22.66809 
6.25000 	 -23.83076 
6.25500 	 -25.17230 
6.26000 	 -26.78215 
6.26500 	 -27.94481 
6.27000 	 -29.19692 
6.27500 	 -30.62789 
6.28000 	 -31.52225 
6.28500 	 -32.68492 
6.29000 	 -33.84759 
6.29500 	 -34.92082 
6.30000 	 -35.54687 
6.30500 	 -36.70954 
6.31000 	 -37.51446 
6.31500 	 -38.40882 
6.32000 	 -39.30318 
6.32500 	 -40.01867 
6.33000 	 -40.55529 
6.33500 	 -41.27077 
6.34000 	 -42.16513 
6.34500 	 -42.61231 
6.35000 	 -43.23836 
6.35500 	 -43.59611 
6.36000 	 -44.13272 
6.36500 	 -44.49047 
6.37000 	 -44.84821 
6.37500 	 -45.11652 
6.38000 	 -45.38483 
6.38500 	 -45.56370 
6.39000 	 -45.83201 
6.39500 	 -45.92144 
6.40000 	 -45.92144 
6.40500 	 -46.01088 
6.41000 	 -45.92144 
6.41500 	 -45.83201 
6.42000 	 -45.74257 
6.42500 	 -45.56370 
6.43000 	 -45.38483 
6.43500 	 -45.11652 
6.44000 	 -44.93765 
6.44500 	 -44.49047 
6.45000 	 -44.13272 
6.45500 	 -43.59611 
6.46000 	 -43.23836 
6.46500 	 -42.61231 
6.47000 	 -42.25457 
6.47500 	 -41.44964 
6.48000 	 -40.64472 
6.48500 	 -40.10811 
6.49000 	 -39.48205 
6.49500 	 -38.67713 
6.50000 	 -37.69333 
6.50500 	 -36.97785 
6.51000 	 -36.08349 
6.51500 	 -35.09969 
6.52000 	 -34.38420 
6.52500 	 -33.13210 
6.53000 	 -32.05887 
6.53500 	 -31.07507 
6.54000 	 -29.91240 
6.54500 	 -28.74974 
6.55000 	 -27.49763 
6.55500 	 -26.33497 
6.56000 	 -24.99343 
6.56500 	 -23.56245 
6.57000 	 -22.22091 
6.57500 	 -20.96881 
6.58000 	 -19.62727 
6.58500 	 -18.28573 
6.59000 	 -16.76532 
6.59500 	 -15.24491 
6.60000 	 -14.08224 
6.60500 	 -12.38295 
6.61000 	 -10.86254 
6.61500 	 -9.69987 
6.62000 	 -8.00059 
6.62500 	 -6.48018 
6.63000 	 -5.13864 
6.63500 	 -3.43936 
6.64000 	 -1.82951 
6.64500 	 -0.57741 
6.65000 	 1.12188 
6.65500 	 2.64229 
6.66000 	 4.34157 
6.66500 	 5.68311 
6.67000 	 7.29296 
6.67500 	 8.72394 
6.68000 	 10.33378 
6.68500 	 11.58589 
6.69000 	 13.19573 
6.69500 	 14.53727 
6.70000 	 15.96825 
6.70500 	 17.48866 
6.71000 	 19.00907 
6.71500 	 19.99287 
6.72000 	 21.78159 
6.72500 	 22.85482 
6.73000 	 24.28579 
6.73500 	 25.35903 
6.74000 	 26.70057 
6.74500 	 27.86323 
6.75000 	 29.11534 
6.75500 	 30.36744 
6.76000 	 31.44067 
6.76500 	 32.51390 
6.77000 	 33.58714 
6.77500 	 34.39206 
6.78000 	 35.46529 
6.78500 	 36.53852 
6.79000 	 37.34345 
6.79500 	 38.05893 
6.80000 	 38.95329 
6.80500 	 39.84765 
6.81000 	 40.56314 
6.81500 	 41.18919 
6.82000 	 41.72581 
6.82500 	 42.35186 
6.83000 	 42.97791 
6.83500 	 43.51453 
6.84000 	 43.87227 
6.84500 	 44.14058 
6.85000 	 44.49832 
6.85500 	 44.85607 
6.86000 	 45.03494 
6.86500 	 45.30325 
6.87000 	 45.48212 
6.87500 	 45.57156 
6.88000 	 45.66099 
6.88500 	 45.66099 
6.89000 	 45.57156 
6.89500 	 45.57156 
6.90000 	 45.39268 
6.90500 	 45.12438 
6.91000 	 44.94550 
6.91500 	 44.76663 
6.92000 	 44.40889 
6.92500 	 44.14058 
6.93000 	 43.78284 
6.93500 	 43.33566 
6.94000 	 42.70960 
6.94500 	 42.17299 
6.95000 	 41.54694 
6.95500 	 41.01032 
6.96000 	 40.38427 
6.96500 	 39.75822 
6.97000 	 38.77442 
6.97500 	 37.96950 
6.98000 	 37.25401 
6.98500 	 36.44909 
6.99000 	 35.46529 
6.99500 	 34.48150 
7.00000 	 33.67657 
7.00500 	 32.51390 
7.01000 	 31.53011 
7.01500 	 30.63575 
7.02000 	 29.29421 
7.02500 	 28.22098 
7.03000 	 27.05831 
7.03500 	 26.07451 
7.04000 	 24.82241 
7.04500 	 23.39143 
7.05000 	 22.40764 
7.05500 	 20.79779 
7.06000 	 19.54569 
7.06500 	 18.29358 
7.07000 	 16.95204 
7.07500 	 15.61051 
7.08000 	 14.09009 
7.08500 	 12.74855 
7.09000 	 11.31758 
7.09500 	 9.97604 
7.10000 	 8.54506 
7.10500 	 7.29296 
7.11000 	 5.86198 
7.11500 	 4.52044 
7.12000 	 2.91060 
7.12500 	 1.47962 
7.13000 	 0.22752 
7.13500 	 -1.38233 
7.14000 	 -2.72387 
7.14500 	 -4.06541 
7.15000 	 -5.49638 
7.15500 	 -7.01680 
7.16000 	 -8.26890 
7.16500 	 -9.78931 
7.17000 	 -10.68367 
7.17500 	 -12.20408 
7.18000 	 -13.81393 
7.18500 	 -15.06603 
7.19000 	 -16.13926 
7.19500 	 -17.30193 
7.20000 	 -18.91178 
7.20500 	 -19.98501 
7.21000 	 -20.96881 
7.21500 	 -22.04204 
7.22000 	 -23.20471 
7.22500 	 -24.27794 
7.23000 	 -25.26173 
7.23500 	 -26.60327 
7.24000 	 -27.49763 
7.24500 	 -28.57086 
7.25000 	 -29.28635 
7.25500 	 -30.53846 
7.26000 	 -31.07507 
7.26500 	 -31.88000 
7.27000 	 -32.68492 
7.27500 	 -33.40041 
7.28000 	 -34.20533 
7.28500 	 -34.83138 
7.29000 	 -35.27856 
7.29500 	 -35.81518 
7.30000 	 -36.53067 
7.30500 	 -36.88841 
7.31000 	 -37.33559 
7.31500 	 -37.60390 
7.32000 	 -38.05108 
7.32500 	 -38.40882 
7.33000 	 -38.67713 
7.33500 	 -38.94544 
7.34000 	 -39.12431 
7.34500 	 -39.30318 
7.35000 	 -39.39262 
7.35500 	 -39.39262 
7.36000 	 -39.48205 
7.36500 	 -39.39262 
7.37000 	 -39.39262 
7.37500 	 -39.30318 
7.38000 	 -39.03487 
7.38500 	 -38.85600 
7.39000 	 -38.67713 
7.39500 	 -38.40882 
7.40000 	 -38.05108 
7.40500 	 -37.60390 
7.41000 	 -37.33559 
7.41500 	 -36.97785 
7.42000 	 -36.53067 
7.42500 	 -35.81518 
7.43000 	 -35.27856 
7.43500 	 -34.92082 
7.44000 	 -34.29477 
7.44500 	 -33.66872 
7.45000 	 -32.77436 
7.45500 	 -32.05887 
7.46000 	 -31.25394 
7.46500 	 -30.71733 
7.47000 	 -29.64410 
7.47500 	 -28.83917 
7.48000 	 -27.94481 
7.48500 	 -26.96102 
7.49000 	 -26.06666 
7.49500 	 -24.99343 
7.50000 	 -23.74132 
7.50500 	 -22.93640 
7.51000 	 -21.77373 
7.51500 	 -20.70050 
7.52000 	 -19.53783 
7.52500 	 -18.55404 
7.53000 	 -17.21250 
7.53500 	 -15.96039 
7.54000 	 -15.06603 
7.54500 	 -13.81393 
7.55000 	 -12.29352 
7.55500 	 -11.13085 
7.56000 	 -9.96818 
7.56500 	 -8.62664 
7.57000 	 -7.37454 
7.57500 	 -6.03300 
7.58000 	 -4.87033 
7.58500 	 -3.43936 
7.59000 	 -1.91895 
7.59500 	 -1.02459 
7.60000 	 0.67470 
7.60500 	 1.74793 
7.61000 	 3.08947 
7.61500 	 4.52044 
7.62000 	 5.77255 
7.62500 	 7.11409 
7.63000 	 8.36619 
7.63500 	 9.61830 
7.64000 	 10.87040 
7.64500 	 12.21194 
7.65000 	 13.37461 
7.65500 	 14.53727 
7.66000 	 15.78938 
7.66500 	 17.04148 
7.67000 	 18.20415 
7.67500 	 19.36682 
7.68000 	 20.35061 
7.68500 	 21.69215 
7.69000 	 22.58651 
7.69500 	 23.65974 
7.70000 	 24.82241 
7.70500 	 25.71677 
7.71000 	 26.70057 
7.71500 	 27.50549 
7.72000 	 28.48929 
7.72500 	 29.38364 
7.73000 	 30.27800 
7.73500 	 31.26180 
7.74000 	 31.70898 
7.74500 	 32.51390 
7.75000 	 33.13996 
7.75500 	 33.94488 
7.76000 	 34.39206 
7.76500 	 35.01811 
7.77000 	 35.64416 
7.77500 	 36.27021 
7.78000 	 36.62796 
7.78500 	 37.07514 
7.79000 	 37.34345 
7.79500 	 37.61175 
7.80000 	 37.88006 
7.80500 	 38.14837 
7.81000 	 38.32724 
7.81500 	 38.41668 
7.82000 	 38.59555 
7.82500 	 38.77442 
7.83000 	 38.86386 
7.83500 	 38.86386 
7.84000 	 38.68499 
7.84500 	 38.59555 
7.85000 	 38.50611 
7.85500 	 38.32724 
7.86000 	 38.14837 
7.86500 	 37.88006 
7.87000 	 37.61175 
7.87500 	 37.43288 
7.88000 	 37.16457 
7.88500 	 36.71739 
7.89000 	 36.35965 
7.89500 	 36.00191 
7.90000 	 35.19698 
7.90500 	 34.57093 
7.91000 	 34.21319 
7.91500 	 33.58714 
7.92000 	 32.87165 
7.92500 	 32.24560 
7.93000 	 31.53011 
7.93500 	 30.99349 
7.94000 	 29.92026 
7.94500 	 29.02590 
7.95000 	 28.22098 
7.95500 	 27.32662 
7.96000 	 26.61113 
7.96500 	 25.53790 
7.97000 	 24.82241 
7.97500 	 23.57031 
7.98000 	 22.58651 
7.98500 	 21.87102 
7.99000 	 20.52948 
7.99500 	 19.54569 
8.00000 	 18.47246 
8.00500 	 17.30979 
8.01000 	 16.14712 
8.01500 	 15.16333 
8.02000 	 13.82179 
8.02500 	 12.74855 
8.03000 	 11.40701 
8.03500 	 10.60209 
8.04000 	 9.08168 
8.04500 	 8.00845 
8.05000 	 6.75634 
8.05500 	 5.59368 
8.06000 	 4.43101 
8.06500 	 3.08947 
8.07000 	 1.83737 
8.07500 	 0.76413 
8.08000 	 -0.66684 
8.08500 	 -1.56120 
8.09000 	 -2.99218 
8.09500 	 -4.06541 
8.10000 	 -5.31751 
8.10500 	 -6.48018 
8.11000 	 -7.64285 
8.11500 	 -8.80552 
8.12000 	 -10.05762 
8.12500 	 -10.86254 
8.13000 	 -12.02521 
8.13500 	 -13.18788 
8.14000 	 -14.52942 
8.14500 	 -15.24491 
8.15000 	 -16.40757 
8.15500 	 -17.30193 
8.16000 	 -18.46460 
8.16500 	 -19.44840 
8.17000 	 -20.07445 
8.17500 	 -21.23712 
8.18000 	 -21.95260 
8.18500 	 -22.93640 
8.19000 	 -23.65189 
8.19500 	 -24.36737 
8.20000 	 -25.26173 
8.20500 	 -26.15609 
8.21000 	 -26.87158 
8.21500 	 -27.40820 
8.22000 	 -28.30256 
8.22500 	 -28.74974 
8.23000 	 -29.19692 
8.23500 	 -29.82297 
8.24000 	 -30.44902 
8.24500 	 -30.89620 
8.25000 	 -31.16451 
8.25500 	 -31.61169 
8.26000 	 -31.88000 
8.26500 	 -32.23774 
8.27000 	 -32.50605 
8.27500 	 -32.68492 
8.28000 	 -32.86379 
8.28500 	 -33.04266 
8.29000 	 -33.22154 
8.29500 	 -33.31097 
8.30000 	 -33.31097 
8.30500 	 -33.40041 
8.31000 	 -33.31097 
8.31500 	 -33.22154 
8.32000 	 -33.13210 
8.32500 	 -32.95323 
8.33000 	 -32.86379 
8.33500 	 -32.68492 
8.34000 	 -32.50605 
8.34500 	 -32.05887 
8.35000 	 -31.79056 
8.35500 	 -31.52225 
8.36000 	 -31.16451 
8.36500 	 -30.80676 
8.37000 	 -30.44902 
8.37500 	 -29.73353 
8.38000 	 -29.19692 
8.38500 	 -28.74974 
8.39000 	 -28.21312 
8.39500 	 -27.49763 
8.40000 	 -26.87158 
8.40500 	 -26.15609 
8.41000 	 -25.26173 
8.41500 	 -24.63568 
8.42000 	 -23.83076 
8.42500 	 -23.11527 
8.43000 	 -22.22091 
8.43500 	 -21.41599 
8.44000 	 -20.52163 
8.44500 	 -19.80614 
8.45000 	 -19.18009 
8.45500 	 -17.83855 
8.46000 	 -16.94419 
8.46500 	 -15.87096 
8.47000 	 -15.15547 
8.47500 	 -14.17167 
8.48000 	 -12.83013 
8.48500 	 -11.75690 
8.49000 	 -10.59423 
8.49500 	 -9.96818 
8.50000 	 -8.71608 
8.50500 	 -7.73228 
8.51000 	 -6.65905 
8.51500 	 -5.49638 
8.52000 	 -4.42315 
8.52500 	 -3.34992 
8.53000 	 -2.00838 
8.53500 	 -1.11402 
8.54000 	 0.13808 
8.54500 	 1.30075 
8.55000 	 2.19511 
8.55500 	 3.44721 
8.56000 	 4.52044 
8.56500 	 5.50424 
8.57000 	 6.75634 
8.57500 	 7.82958 
8.58000 	 8.72394 
8.58500 	 9.88660 
8.59000 	 10.95983 
8.59500 	 12.03307 
8.60000 	 13.01686 
8.60500 	 13.91122 
8.61000 	 15.16333 
8.61500 	 15.96825 
8.62000 	 17.04148 
8.62500 	 17.93584 
8.63000 	 19.00907 
8.63500 	 19.63512 
8.64000 	 20.61892 
8.64500 	 21.60272 
8.65000 	 22.40764 
8.65500 	 23.12313 
8.66000 	 23.83861 
8.66500 	 24.82241 
8.67000 	 25.18015 
8.67500 	 26.16395 
8.68000 	 26.70057 
8.68500 	 27.32662 
8.69000 	 27.77380 
8.69500 	 28.48929 
8.70000 	 29.02590 
8.70500 	 29.47308 
8.71000 	 29.92026 
8.71500 	 30.54631 
8.72000 	 30.99349 
8.72500 	 31.35124 
8.73000 	 31.53011 
8.73500 	 31.70898 
8.74000 	 32.15616 
8.74500 	 32.33503 
8.75000 	 32.51390 
8.75500 	 32.60334 
8.76000 	 32.78221 
8.76500 	 32.87165 
8.77000 	 32.87165 
8.77500 	 32.78221 
8.78000 	 32.87165 
8.78500 	 32.78221 
8.79000 	 32.60334 
8.79500 	 32.51390 
8.80000 	 32.33503 
8.80500 	 32.24560 
8.81000 	 31.88785 
8.81500 	 31.61954 
8.82000 	 31.35124 
8.82500 	 31.08293 
8.83000 	 30.72518 
8.83500 	 30.18857 
8.84000 	 29.74139 
8.84500 	 29.20477 
8.85000 	 28.75759 
8.85500 	 28.13154 
8.86000 	 27.50549 
8.86500 	 27.05831 
8.87000 	 26.52169 
8.87500 	 25.98508 
8.88000 	 25.09072 
8.88500 	 24.64354 
8.89000 	 23.65974 
8.89500 	 22.94425 
8.90000 	 22.40764 
8.90500 	 21.51328 
8.91000 	 20.52948 
8.91500 	 19.72456 
8.92000 	 19.09851 
8.92500 	 18.11471 
8.93000 	 17.22035 
8.93500 	 16.23656 
8.94000 	 15.43163 
8.94500 	 14.26897 
8.95000 	 13.37461 
8.95500 	 12.48025 
8.96000 	 11.31758 
8.96500 	 10.69153 
8.97000 	 9.43942 
8.97500 	 8.45563 
8.98000 	 7.65070 
8.98500 	 6.48804 
8.99000 	 5.41480 
8.99500 	 4.52044 
9.00000 	 3.44721 
9.00500 	 2.37398 
9.01000 	 1.39019 
9.01500 	 0.49583 
9.02000 	 -0.84571 
9.02500 	 -1.56120 
9.03000 	 -2.72387 
9.03500 	 -3.61823 
9.04000 	 -4.78090 
9.04500 	 -5.67526 
9.05000 	 -6.74849 
9.05500 	 -7.64285 
9.06000 	 -8.53721 
9.06500 	 -9.69987 
9.07000 	 -10.41536 
9.07500 	 -11.30972 
9.08000 	 -12.11465 
9.08500 	 -12.91957 
9.09000 	 -14.08224 
9.09500 	 -15.06603 
9.10000 	 -15.42378 
9.10500 	 -16.40757 
9.11000 	 -17.12306 
9.11500 	 -17.83855 
9.12000 	 -19.00122 
9.12500 	 -19.53783 
9.13000 	 -20.07445 
9.13500 	 -20.70050 
9.14000 	 -21.41599 
9.14500 	 -21.95260 
9.15000 	 -22.48922 
9.15500 	 -23.11527 
9.16000 	 -23.56245 
9.16500 	 -24.00963 
9.17000 	 -24.45681 
9.17500 	 -24.99343 
9.18000 	 -25.26173 
9.18500 	 -25.70891 
9.19000 	 -26.15609 
9.19500 	 -26.51384 
9.20000 	 -26.78215 
9.20500 	 -26.96102 
9.21000 	 -27.13989 
9.21500 	 -27.40820 
9.22000 	 -27.40820 
9.22500 	 -27.49763 
9.23000 	 -27.58707 
9.23500 	 -27.58707 
9.24000 	 -27.58707 
9.24500 	 -27.58707 
9.25000 	 -27.49763 
9.25500 	 -27.49763 
9.26000 	 -27.40820 
9.26500 	 -27.40820 
9.27000 	 -27.13989 
9.27500 	 -26.96102 
9.28000 	 -26.78215 
9.28500 	 -26.51384 
9.29000 	 -26.24553 
9.29500 	 -25.79835 
9.30000 	 -25.35117 
9.30500 	 -25.08286 
9.31000 	 -24.54625 
9.31500 	 -24.09907 
9.32000 	 -23.65189 
9.32500 	 -23.20471 
9.33000 	 -22.84696 
9.33500 	 -22.13147 
9.34000 	 -21.68430 
9.34500 	 -21.14768 
9.35000 	 -20.25332 
9.35500 	 -19.89558 
9.36000 	 -19.35896 
9.36500 	 -18.64347 
9.37000 	 -17.74911 
9.37500 	 -17.03362 
9.38000 	 -16.31814 
9.38500 	 -15.42378 
9.39000 	 -15.06603 
9.39500 	 -14.08224 
9.40000 	 -13.09844 
9.40500 	 -12.29352 
9.41000 	 -11.48859 
9.41500 	 -10.50480 
9.42000 	 -9.96818 
9.42500 	 -8.89495 
9.43000 	 -8.09003 
9.43500 	 -7.19567 
9.44000 	 -6.21187 
9.44500 	 -5.31751 
9.45000 	 -4.42315 
9.45500 	 -3.52879 
9.46000 	 -2.54500 
9.46500 	 -1.56120 
9.47000 	 -0.93515 
9.47500 	 0.31695 
9.48000 	 1.21131 
9.48500 	 1.92680 
9.49000 	 2.91060 
9.49500 	 4.07326 
9.50000 	 4.78875 
9.50500 	 5.77255 
9.51000 	 6.66691 
9.51500 	 7.65070 
9.52000 	 8.45563 
9.52500 	 9.17112 
9.53000 	 10.24435 
9.53500 	 10.95983 
9.54000 	 11.94363 
9.54500 	 12.65912 
9.55000 	 13.46404 
9.55500 	 14.17953 
9.56000 	 15.25276 
9.56500 	 15.78938 
9.57000 	 16.50486 
9.57500 	 17.30979 
9.58000 	 18.02528 
9.58500 	 18.83020 
9.59000 	 19.45625 
9.59500 	 19.81400 
9.60000 	 20.61892 
9.60500 	 21.24497 
9.61000 	 22.04990 
9.61500 	 22.40764 
9.62000 	 22.85482 
9.62500 	 23.30200 
9.63000 	 23.74918 
9.63500 	 24.37523 
9.64000 	 24.82241 
9.64500 	 25.00128 
9.65000 	 25.26959 
9.65500 	 25.80621 
9.66000 	 26.25339 
9.66500 	 26.43226 
9.67000 	 26.61113 
9.67500 	 26.70057 
9.68000 	 26.79000 
9.68500 	 26.96887 
9.69000 	 27.05831 
9.69500 	 27.14775 
9.70000 	 27.23718 
9.70500 	 27.23718 
9.71000 	 27.14775 
9.71500 	 27.14775 
9.72000 	 27.05831 
9.72500 	 27.05831 
9.73000 	 26.87944 
9.73500 	 26.70057 
9.74000 	 26.61113 
9.74500 	 26.43226 
9.75000 	 26.25339 
9.75500 	 25.98508 
9.76000 	 25.53790 
9.76500 	 25.18015 
9.77000 	 24.91185 
9.77500 	 24.73297 
9.78000 	 24.19636 
9.78500 	 23.65974 
9.79000 	 23.21256 
9.79500 	 22.67595 
9.80000 	 22.40764 
9.80500 	 21.96046 
9.81000 	 21.15554 
9.81500 	 20.52948 
9.82000 	 19.81400 
9.82500 	 19.45625 
9.83000 	 18.91964 
9.83500 	 18.20415 
9.84000 	 17.39922 
9.84500 	 16.68374 
9.85000 	 16.05769 
9.85500 	 15.43163 
9.86000 	 14.62671 
9.86500 	 13.82179 
9.87000 	 13.19573 
9.87500 	 12.30137 
9.88000 	 11.49645 
9.88500 	 10.87040 
9.89000 	 9.97604 
9.89500 	 9.08168 
9.90000 	 8.45563 
9.90500 	 7.74014 
9.91000 	 6.75634 
9.91500 	 5.95142 
9.92000 	 4.96762 
9.92500 	 4.34157 
9.93000 	 3.35778 
9.93500 	 2.46342 
9.94000 	 1.56906 
9.94500 	 0.94301 
9.95000 	 0.04865 
9.95500 	 -1.02459 
9.96000 	 -1.56120 
9.96500 	 -2.45556 
9.97000 	 -3.34992 
9.97500 	 -4.06541 
9.98000 	 -5.04920 
9.98500 	 -5.76469 
9.99000 	 -6.56962 
9.99500 	 -7.37454 
10.00000 	 -8.09003 
10.00500 	 -8.80552 
10.01000 	 -9.69987 
10.01500 	 -10.32593 
10.02000 	 -10.77311 
10.02500 	 -11.57803 
10.03000 	 -12.29352 
10.03500 	 -12.91957 
10.04000 	 -13.90337 
10.04500 	 -14.61885 
10.05000 	 -15.06603 
10.05500 	 -15.33434 
10.06000 	 -15.96039 
10.06500 	 -16.67588 
10.07000 	 -17.12306 
10.07500 	 -17.57024 
10.08000 	 -18.19629 
10.08500 	 -18.82234 
10.09000 	 -19.35896 
10.09500 	 -19.53783 
10.10000 	 -19.89558 
10.10500 	 -20.07445 
10.11000 	 -20.34276 
10.11500 	 -20.87937 
10.12000 	 -21.23712 
10.12500 	 -21.41599 
10.13000 	 -21.59486 
10.13500 	 -21.77373 
10.14000 	 -21.95260 
10.14500 	 -22.04204 
10.15000 	 -22.13147 
10.15500 	 -22.22091 
10.16000 	 -22.31035 
10.16500 	 -22.39978 
10.17000 	 -22.39978 
10.17500 	 -22.39978 
10.18000 	 -22.31035 
10.18500 	 -22.22091 
10.19000 	 -22.04204 
10.19500 	 -22.04204 
10.20000 	 -21.95260 
10.20500 	 -21.86317 
10.21000 	 -21.68430 
10.21500 	 -21.41599 
10.22000 	 -21.23712 
10.22500 	 -20.96881 
10.23000 	 -20.52163 
10.23500 	 -20.25332 
10.24000 	 -19.98501 
10.24500 	 -19.62727 
10.25000 	 -19.44840 
10.25500 	 -19.18009 
10.26000 	 -18.55404 
10.26500 	 -18.01742 
10.27000 	 -17.48080 
10.27500 	 -17.03362 
10.28000 	 -16.58644 
10.28500 	 -15.96039 
10.29000 	 -15.24491 
10.29500 	 -15.06603 
10.30000 	 -14.61885 
10.30500 	 -13.90337 
10.31000 	 -13.00901 
10.31500 	 -12.38295 
10.32000 	 -11.75690 
10.32500 	 -11.30972 
10.33000 	 -10.50480 
10.33500 	 -10.05762 
10.34000 	 -9.25269 
10.34500 	 -8.53721 
10.35000 	 -7.91116 
10.35500 	 -7.19567 
10.36000 	 -6.39074 
10.36500 	 -5.67526 
10.37000 	 -5.04920 
10.37500 	 -4.15484 
10.38000 	 -3.43936 
10.38500 	 -2.72387 
10.39000 	 -1.82951 
10.39500 	 -1.29289 
10.40000 	 -0.66684 
10.40500 	 0.40639 
10.41000 	 1.03244 
10.41500 	 1.74793 
10.42000 	 2.55285 
10.42500 	 3.26834 
10.43000 	 4.16270 
10.43500 	 4.87819 
10.44000 	 5.50424 
10.44500 	 6.21973 
10.45000 	 7.02465 
10.45500 	 7.74014 
10.46000 	 8.36619 
10.46500 	 8.99224 
10.47000 	 9.70773 
10.47500 	 10.60209 
10.48000 	 10.95983 
10.48500 	 11.67532 
10.49000 	 12.30137 
10.49500 	 12.92743 
10.50000 	 13.64291 
10.50500 	 14.00066 
10.51000 	 14.80558 
10.51500 	 15.43163 
10.52000 	 15.78938 
10.52500 	 16.32599 
10.53000 	 16.77317 
10.53500 	 17.30979 
10.54000 	 17.66753 
10.54500 	 18.29358 
10.55000 	 18.74076 
10.55500 	 19.18794 
10.56000 	 19.45625 
10.56500 	 19.72456 
10.57000 	 19.90343 
10.57500 	 20.26118 
10.58000 	 20.61892 
10.58500 	 20.88723 
10.59000 	 21.06610 
10.59500 	 21.42384 
10.60000 	 21.69215 
10.60500 	 21.87102 
10.61000 	 22.04990 
10.61500 	 22.13933 
10.62000 	 22.22877 
10.62500 	 22.22877 
10.63000 	 22.22877 
10.63500 	 22.31820 
10.64000 	 22.22877 
10.64500 	 22.22877 
10.65000 	 22.22877 
10.65500 	 22.13933 
10.66000 	 21.96046 
10.66500 	 21.78159 
10.67000 	 21.51328 
10.67500 	 21.24497 
10.68000 	 20.97666 
10.68500 	 20.79779 
10.69000 	 20.44005 
10.69500 	 20.08230 
10.70000 	 19.81400 
10.70500 	 19.63512 
10.71000 	 19.36682 
10.71500 	 19.18794 
10.72000 	 18.74076 
10.72500 	 18.29358 
10.73000 	 17.75697 
10.73500 	 17.39922 
10.74000 	 16.95204 
10.74500 	 16.41543 
10.75000 	 15.96825 
10.75500 	 15.52107 
10.76000 	 15.07389 
10.76500 	 14.35840 
10.77000 	 13.82179 
10.77500 	 13.37461 
10.78000 	 12.74855 
10.78500 	 12.21194 
10.79000 	 11.49645 
10.79500 	 10.95983 
10.80000 	 10.60209 
10.80500 	 9.70773 
10.81000 	 9.08168 
10.81500 	 8.54506 
10.82000 	 7.91901 
10.82500 	 7.38240 
10.83000 	 6.57747 
10.83500 	 5.95142 
10.84000 	 5.23593 
10.84500 	 4.69932 
10.85000 	 4.07326 
10.85500 	 3.26834 
10.86000 	 2.55285 
10.86500 	 1.83737 
10.87000 	 1.30075 
10.87500 	 0.67470 
10.88000 	 -0.13023 
10.88500 	 -1.02459 
10.89000 	 -1.47177 
10.89500 	 -1.91895 
10.90000 	 -2.81331 
10.90500 	 -3.43936 
10.91000 	 -3.97597 
10.91500 	 -4.87033 
10.92000 	 -5.40695 
10.92500 	 -5.94356 
10.93000 	 -6.56962 
10.93500 	 -7.19567 
10.94000 	 -7.73228 
10.94500 	 -8.26890 
10.95000 	 -8.80552 
10.95500 	 -9.52100 
10.96000 	 -10.14705 
10.96500 	 -10.41536 
10.97000 	 -10.68367 
10.97500 	 -11.39916 
10.98000 	 -11.75690 
10.98500 	 -12.29352 
10.99000 	 -12.56183 
10.99500 	 -13.09844 
11.00000 	 -13.72449 
11.00500 	 -14.17167 
11.01000 	 -14.70829 
11.01500 	 -15.06603 
11.02000 	 -15.15547 
11.02500 	 -15.24491 
11.03000 	 -15.51321 
11.03500 	 -15.78152 
11.04000 	 -16.13926 
11.04500 	 -16.40757 
11.05000 	 -16.67588 
11.05500 	 -16.85475 
11.06000 	 -16.94419 
11.06500 	 -17.12306 
11.07000 	 -17.21250 
11.07500 	 -17.30193 
11.08000 	 -17.39137 
11.08500 	 -17.39137 
11.09000 	 -17.48080 
11.09500 	 -17.48080 
11.10000 	 -17.48080 
11.10500 	 -17.39137 
11.11000 	 -17.39137 
11.11500 	 -17.30193 
11.12000 	 -17.30193 
11.12500 	 -17.12306 
11.13000 	 -17.03362 
11.13500 	 -16.85475 
11.14000 	 -16.67588 
11.14500 	 -16.58644 
11.15000 	 -16.22870 
11.15500 	 -15.96039 
11.16000 	 -15.69208 
11.16500 	 -15.42378 
11.17000 	 -15.24491 
11.17500 	 -15.15547 
11.18000 	 -14.97660 
11.18500 	 -14.61885 
11.19000 	 -14.17167 
11.19500 	 -13.72449 
11.20000 	 -13.18788 
11.20500 	 -12.74070 
11.21000 	 -12.38295 
11.21500 	 -11.84634 
11.22000 	 -11.48859 
11.22500 	 -11.04141 
11.23000 	 -10.50480 
11.23500 	 -10.23649 
11.24000 	 -9.87875 
11.24500 	 -9.25269 
11.25000 	 -8.71608 
11.25500 	 -8.26890 
11.26000 	 -7.73228 
11.26500 	 -7.19567 
11.27000 	 -6.65905 
11.27500 	 -6.03300 
11.28000 	 -5.49638 
11.28500 	 -5.04920 
11.29000 	 -4.33372 
11.29500 	 -3.70766 
11.30000 	 -3.26048 
11.30500 	 -2.63443 
11.31000 	 -1.91895 
11.31500 	 -1.38233 
11.32000 	 -1.02459 
11.32500 	 -0.39853 
11.33000 	 0.40639 
11.33500 	 0.94301 
11.34000 	 1.47962 
11.34500 	 2.01624 
11.35000 	 2.64229 
11.35500 	 3.26834 
11.36000 	 4.07326 
11.36500 	 4.52044 
11.37000 	 4.96762 
11.37500 	 5.59368 
11.38000 	 6.13029 
11.38500 	 6.66691 
11.39000 	 7.29296 
11.39500 	 7.74014 
11.40000 	 8.36619 
11.40500 	 8.72394 
11.41000 	 9.17112 
11.41500 	 9.61830 
11.42000 	 10.33378 
11.42500 	 10.78096 
11.43000 	 11.04927 
11.43500 	 11.49645 
11.44000 	 12.03307 
11.44500 	 12.39081 
11.45000 	 12.83799 
11.45500 	 13.28517 
11.46000 	 13.64291 
11.46500 	 13.82179 
11.47000 	 14.09009 
11.47500 	 14.53727 
11.48000 	 15.07389 
11.48500 	 15.34220 
11.49000 	 15.52107 
11.49500 	 15.69994 
11.50000 	 15.96825 
11.50500 	 16.14712 
11.51000 	 16.32599 
11.51500 	 16.50486 
11.52000 	 16.68374 
11.52500 	 16.77317 
11.53000 	 17.04148 
11.53500 	 17.13092 
11.54000 	 17.22035 
11.54500 	 17.22035 
11.55000 	 17.22035 
11.55500 	 17.30979 
11.56000 	 17.30979 
11.56500 	 17.22035 
11.57000 	 17.22035 
11.57500 	 17.13092 
11.58000 	 17.13092 
11.58500 	 17.04148 
11.59000 	 16.77317 
11.59500 	 16.59430 
11.60000 	 16.50486 
11.60500 	 16.41543 
11.61000 	 16.23656 
11.61500 	 16.05769 
11.62000 	 15.78938 
11.62500 	 15.69994 
11.63000 	 15.43163 
11.63500 	 15.25276 
11.64000 	 14.89502 
11.64500 	 14.44784 
11.65000 	 14.09009 
11.65500 	 13.82179 
11.66000 	 13.55348 
11.66500 	 13.28517 
11.67000 	 12.83799 
11.67500 	 12.56968 
11.68000 	 12.12250 
11.68500 	 11.67532 
11.69000 	 11.22814 
11.69500 	 10.87040 
11.70000 	 10.69153 
11.70500 	 10.06547 
11.71000 	 9.52886 
11.71500 	 8.99224 
11.72000 	 8.63450 
11.72500 	 8.27676 
11.73000 	 7.82958 
11.73500 	 7.47183 
11.74000 	 6.84578 
11.74500 	 6.30916 
11.75000 	 5.77255 
11.75500 	 5.32537 
11.76000 	 4.78875 
11.76500 	 4.34157 
11.77000 	 3.80496 
11.77500 	 3.26834 
11.78000 	 2.64229 
11.78500 	 2.10567 
11.79000 	 1.65849 
11.79500 	 1.30075 
11.80000 	 0.85357 
11.80500 	 0.22752 
11.81000 	 -0.48797 
11.81500 	 -1.11402 
11.82000 	 -1.29289 
11.82500 	 -1.74007 
11.83000 	 -2.18725 
11.83500 	 -2.90274 
11.84000 	 -3.34992 
11.84500 	 -3.70766 
11.85000 	 -4.24428 
11.85500 	 -4.87033 
11.86000 	 -5.22808 
11.86500 	 -5.58582 
11.87000 	 -6.03300 
11.87500 	 -6.48018 
11.88000 	 -7.01680 
11.88500 	 -7.37454 
11.89000 	 -7.73228 
11.89500 	 -8.09003 
11.90000 	 -8.44777 
11.90500 	 -8.80552 
11.91000 	 -9.07382 
11.91500 	 -9.61044 
11.92000 	 -9.96818 
11.92500 	 -10.14705 
11.93000 	 -10.41536 
11.93500 	 -10.50480 
11.94000 	 -10.68367 
11.94500 	 -11.13085 
11.95000 	 -11.30972 
11.95500 	 -11.48859 
11.96000 	 -11.66747 
11.96500 	 -11.84634 
11.97000 	 -11.93577 
11.97500 	 -12.11465 
11.98000 	 -12.29352 
11.98500 	 -12.38295 
11.99000 	 -12.47239 
11.99500 	 -12.56183 
12.00000 	 -12.65126 
12.00500 	 -12.65126 
12.01000 	 -12.74070 
12.01500 	 -12.74070 
12.02000 	 -12.74070 
12.02500 	 -12.74070 
12.03000 	 -12.65126 
12.03500 	 -12.56183 
12.04000 	 -12.56183 
12.04500 	 -12.47239 
12.05000 	 -12.38295 
12.05500 	 -12.38295 
12.06000 	 -12.29352 
12.06500 	 -12.02521 
12.07000 	 -11.84634 
12.07500 	 -11.75690 
12.08000 	 -11.57803 
12.08500 	 -11.48859 
12.09000 	 -11.30972 
12.09500 	 -11.04141 
12.10000 	 -10.59423 
12.10500 	 -10.50480 
12.11000 	 -10.41536 
12.11500 	 -10.14705 
12.12000 	 -9.96818 
12.12500 	 -9.69987 
12.13000 	 -9.25269 
12.13500 	 -8.89495 
12.14000 	 -8.62664 
12.14500 	 -8.35834 
12.15000 	 -8.00059 
12.15500 	 -7.73228 
12.16000 	 -7.37454 
12.16500 	 -7.01680 
12.17000 	 -6.56962 
12.17500 	 -6.12244 
12.18000 	 -5.76469 
12.18500 	 -5.40695 
12.19000 	 -5.04920 
12.19500 	 -4.69146 
12.20000 	 -4.06541 
12.20500 	 -3.61823 
12.21000 	 -3.34992 
12.21500 	 -2.99218 
12.22000 	 -2.45556 
12.22500 	 -1.91895 
12.23000 	 -1.47177 
12.23500 	 -1.29289 
12.24000 	 -1.02459 
12.24500 	 -0.39853 
12.25000 	 0.22752 
12.25500 	 0.76413 
12.26000 	 1.03244 
12.26500 	 1.39019 
12.27000 	 1.74793 
12.27500 	 2.19511 
12.28000 	 2.64229 
12.28500 	 3.17891 
12.29000 	 3.62608 
12.29500 	 4.16270 
12.30000 	 4.52044 
12.30500 	 4.78875 
12.31000 	 5.14650 
12.31500 	 5.59368 
12.32000 	 6.04086 
12.32500 	 6.30916 
12.33000 	 6.84578 
12.33500 	 7.20352 
12.34000 	 7.65070 
12.34500 	 7.82958 
12.35000 	 8.18732 
12.35500 	 8.45563 
12.36000 	 8.72394 
12.36500 	 8.99224 
12.37000 	 9.34999 
12.37500 	 9.61830 
12.38000 	 9.88660 
12.38500 	 10.33378 
12.39000 	 10.60209 
12.39500 	 10.78096 
12.40000 	 10.87040 
12.40500 	 11.04927 
12.41000 	 11.31758 
12.41500 	 11.49645 
12.42000 	 11.67532 
12.42500 	 11.94363 
12.43000 	 12.12250 
12.43500 	 12.12250 
12.44000 	 12.21194 
12.44500 	 12.39081 
12.45000 	 12.48025 
12.45500 	 12.56968 
12.46000 	 12.56968 
12.46500 	 12.56968 
12.47000 	 12.65912 
12.47500 	 12.65912 
12.48000 	 12.74855 
12.48500 	 12.65912 
12.49000 	 12.74855 
12.49500 	 12.56968 
12.50000 	 12.56968 
12.50500 	 12.48025 
12.51000 	 12.48025 
12.51500 	 12.39081 
12.52000 	 12.21194 
12.52500 	 12.21194 
12.53000 	 12.03307 
12.53500 	 11.94363 
12.54000 	 11.67532 
12.54500 	 11.49645 
12.55000 	 11.31758 
12.55500 	 11.22814 
12.56000 	 10.95983 
12.56500 	 10.87040 
12.57000 	 10.78096 
12.57500 	 10.60209 
12.58000 	 10.24435 
12.58500 	 9.97604 
12.59000 	 9.61830 
12.59500 	 9.34999 
12.60000 	 9.08168 
12.60500 	 8.81337 
12.61000 	 8.63450 
12.61500 	 8.36619 
12.62000 	 8.09788 
12.62500 	 7.74014 
12.63000 	 7.65070 
12.63500 	 7.20352 
12.64000 	 6.75634 
12.64500 	 6.39860 
12.65000 	 6.13029 
12.65500 	 5.77255 
12.66000 	 5.32537 
12.66500 	 5.05706 
12.67000 	 4.69932 
12.67500 	 4.52044 
12.68000 	 4.07326 
12.68500 	 3.71552 
12.69000 	 3.26834 
12.69500 	 2.82116 
12.70000 	 2.46342 
12.70500 	 2.10567 
12.71000 	 1.74793 
12.71500 	 1.39019 
12.72000 	 1.21131 
12.72500 	 0.85357 
12.73000 	 0.49583 
12.73500 	 0.04865 
12.74000 	 -0.48797 
12.74500 	 -0.93515 
12.75000 	 -1.20346 
12.75500 	 -1.38233 
12.76000 	 -1.65064 
12.76500 	 -2.00838 
12.77000 	 -2.36613 
12.77500 	 -2.81331 
12.78000 	 -3.17105 
12.78500 	 -3.43936 
12.79000 	 -3.61823 
12.79500 	 -3.97597 
12.80000 	 -4.33372 
12.80500 	 -4.69146 
12.81000 	 -4.95977 
12.81500 	 -5.22808 
12.82000 	 -5.40695 
12.82500 	 -5.67526 
12.83000 	 -5.85413 
12.83500 	 -6.12244 
12.84000 	 -6.30131 
12.84500 	 -6.56962 
12.85000 	 -6.83792 
12.85500 	 -7.01680 
12.86000 	 -7.19567 
12.86500 	 -7.46398 
12.87000 	 -7.55341 
12.87500 	 -7.73228 
12.88000 	 -7.82172 
12.88500 	 -7.91116 
12.89000 	 -8.09003 
12.89500 	 -8.09003 
12.90000 	 -8.26890 
12.90500 	 -8.26890 
12.91000 	 -8.44777 
12.91500 	 -8.44777 
12.92000 	 -8.44777 
12.92500 	 -8.53721 
12.93000 	 -8.53721 
12.93500 	 -8.53721 
12.94000 	 -8.53721 
12.94500 	 -8.53721 
12.95000 	 -8.53721 
12.95500 	 -8.53721 
12.96000 	 -8.44777 
12.96500 	 -8.44777 
12.97000 	 -8.26890 
12.97500 	 -8.17946 
12.98000 	 -8.17946 
12.98500 	 -8.09003 
12.99000 	 -7.91116 
12.99500 	 -7.82172 
13.00000 	 -7.73228 
13.00500 	 -7.64285 
13.01000 	 -7.55341 
13.01500 	 -7.46398 
13.02000 	 -7.19567 
13.02500 	 -7.01680 
13.03000 	 -6.83792 
13.03500 	 -6.65905 
13.04000 	 -6.48018 
13.04500 	 -6.21187 
13.05000 	 -6.03300 
13.05500 	 -5.85413 
13.06000 	 -5.67526 
13.06500 	 -5.40695 
13.07000 	 -5.22808 
13.07500 	 -5.04920 
13.08000 	 -4.87033 
13.08500 	 -4.42315 
13.09000 	 -4.24428 
13.09500 	 -3.97597 
13.10000 	 -3.70766 
13.10500 	 -3.43936 
13.11000 	 -3.26048 
13.11500 	 -2.99218 
13.12000 	 -2.72387 
13.12500 	 -2.27669 
13.13000 	 -2.00838 
13.13500 	 -1.74007 
13.14000 	 -1.47177 
13.14500 	 -1.29289 
13.15000 	 -1.11402 
13.15500 	 -0.93515 
13.16000 	 -0.57741 
13.16500 	 -0.13023 
13.17000 	 0.22752 
13.17500 	 0.58526 
13.18000 	 0.85357 
13.18500 	 1.12188 
13.19000 	 1.39019 
13.19500 	 1.56906 
13.20000 	 1.83737 
13.20500 	 2.10567 
13.21000 	 2.37398 
13.21500 	 2.64229 
13.22000 	 3.00003 
13.22500 	 3.26834 
13.23000 	 3.62608 
13.23500 	 3.89439 
13.24000 	 4.16270 
13.24500 	 4.43101 
13.25000 	 4.60988 
13.25500 	 4.87819 
13.26000 	 4.96762 
13.26500 	 5.23593 
13.27000 	 5.41480 
13.27500 	 5.68311 
13.28000 	 5.95142 
13.28500 	 6.13029 
13.29000 	 6.21973 
13.29500 	 6.48804 
13.30000 	 6.75634 
13.30500 	 6.93522 
13.31000 	 7.11409 
13.31500 	 7.29296 
13.32000 	 7.47183 
13.32500 	 7.65070 
13.33000 	 7.74014 
13.33500 	 7.82958 
13.34000 	 7.82958 
13.34500 	 7.91901 
13.35000 	 8.09788 
13.35500 	 8.09788 
13.36000 	 8.27676 
13.36500 	 8.27676 
13.37000 	 8.36619 
13.37500 	 8.36619 
13.38000 	 8.45563 
13.38500 	 8.54506 
13.39000 	 8.45563 
13.39500 	 8.45563 
13.40000 	 8.45563 
13.40500 	 8.45563 
13.41000 	 8.45563 
13.41500 	 8.45563 
13.42000 	 8.36619 
13.42500 	 8.36619 
13.43000 	 8.36619 
13.43500 	 8.27676 
13.44000 	 8.18732 
13.44500 	 8.09788 
13.45000 	 8.00845 
13.45500 	 7.91901 
13.46000 	 7.82958 
13.46500 	 7.82958 
13.47000 	 7.74014 
13.47500 	 7.65070 
13.48000 	 7.47183 
13.48500 	 7.38240 
13.49000 	 7.20352 
13.49500 	 7.11409 
13.50000 	 6.93522 
13.50500 	 6.75634 
13.51000 	 6.57747 
13.51500 	 6.39860 
13.52000 	 6.21973 
13.52500 	 6.04086 
13.53000 	 5.86198 
13.53500 	 5.68311 
13.54000 	 5.41480 
13.54500 	 5.23593 
13.55000 	 5.14650 
13.55500 	 4.87819 
13.56000 	 4.69932 
13.56500 	 4.52044 
13.57000 	 4.43101 
13.57500 	 4.34157 
13.58000 	 4.07326 
13.58500 	 3.80496 
13.59000 	 3.53665 
13.59500 	 3.26834 
13.60000 	 3.00003 
13.60500 	 2.82116 
13.61000 	 2.55285 
13.61500 	 2.28455 
13.62000 	 2.10567 
13.62500 	 1.83737 
13.63000 	 1.65849 
13.63500 	 1.47962 
13.64000 	 1.30075 
13.64500 	 1.12188 
13.65000 	 0.94301 
13.65500 	 0.76413 
13.66000 	 0.58526 
13.66500 	 0.31695 
13.67000 	 0.04865 
13.67500 	 -0.30910 
13.68000 	 -0.66684 
13.68500 	 -0.84571 
13.69000 	 -1.02459 
13.69500 	 -1.20346 
13.70000 	 -1.29289 
13.70500 	 -1.38233 
13.71000 	 -1.47177 
13.71500 	 -1.56120 
13.72000 	 -1.82951 
13.72500 	 -2.00838 
13.73000 	 -2.18725 
13.73500 	 -2.36613 
13.74000 	 -2.54500 
13.74500 	 -2.81331 
13.75000 	 -2.90274 
13.75500 	 -3.08161 
13.76000 	 -3.26048 
13.76500 	 -3.34992 
13.77000 	 -3.43936 
13.77500 	 -3.52879 
13.78000 	 -3.61823 
13.78500 	 -3.61823 
13.79000 	 -3.70766 
13.79500 	 -3.79710 
13.80000 	 -3.88654 
13.80500 	 -3.97597 
13.81000 	 -4.06541 
13.81500 	 -4.06541 
13.82000 	 -4.15484 
13.82500 	 -4.15484 
13.83000 	 -4.24428 
13.83500 	 -4.33372 
13.84000 	 -4.33372 
13.84500 	 -4.33372 
13.85000 	 -4.33372 
13.85500 	 -4.33372 
13.86000 	 -4.33372 
13.86500 	 -4.33372 
13.87000 	 -4.24428 
13.87500 	 -4.33372 
13.88000 	 -4.24428 
13.88500 	 -4.15484 
13.89000 	 -4.15484 
13.89500 	 -4.15484 
13.90000 	 -4.06541 
13.90500 	 -3.97597 
13.91000 	 -3.88654 
13.91500 	 -3.88654 
13.92000 	 -3.79710 
13.92500 	 -3.70766 
13.93000 	 -3.61823 
13.93500 	 -3.61823 
13.94000 	 -3.52879 
13.94500 	 -3.43936 
13.95000 	 -3.34992 
13.95500 	 -3.34992 
13.96000 	 -3.26048 
13.96500 	 -3.17105 
13.97000 	 -3.08161 
13.97500 	 -2.99218 
13.98000 	 -2.81331 
13.98500 	 -2.72387 
13.99000 	 -2.45556 
13.99500 	 -2.36613 
14.00000 	 -2.18725 
14.00500 	 -2.09782 
14.01000 	 -1.91895 
14.01500 	 -1.82951 
14.02000 	 -1.74007 
14.02500 	 -1.47177 
14.03000 	 -1.47177 
14.03500 	 -1.38233 
14.04000 	 -1.29289 
14.04500 	 -1.20346 
14.05000 	 -1.11402 
14.05500 	 -1.11402 
14.06000 	 -0.93515 
14.06500 	 -0.75628 
14.07000 	 -0.57741 
14.07500 	 -0.39853 
14.08000 	 -0.13023 
14.08500 	 0.13808 
14.09000 	 0.22752 
14.09500 	 0.49583 
14.10000 	 0.67470 
14.10500 	 0.76413 
14.11000 	 0.85357 
14.11500 	 0.94301 
14.12000 	 1.12188 
14.12500 	 1.30075 
14.13000 	 1.30075 
14.13500 	 1.47962 
14.14000 	 1.56906 
14.14500 	 1.65849 
14.15000 	 1.83737 
14.15500 	 1.92680 
14.16000 	 2.10567 
14.16500 	 2.19511 
14.17000 	 2.28455 
14.17500 	 2.46342 
14.18000 	 2.55285 
14.18500 	 2.73173 
14.19000 	 2.82116 
14.19500 	 2.91060 
14.20000 	 3.00003 
14.20500 	 3.17891 
14.21000 	 3.26834 
14.21500 	 3.35778 
14.22000 	 3.44721 
14.22500 	 3.53665 
14.23000 	 3.71552 
14.23500 	 3.71552 
14.24000 	 3.80496 
14.24500 	 3.98383 
14.25000 	 4.07326 
14.25500 	 4.07326 
14.26000 	 4.16270 
14.26500 	 4.25214 
14.27000 	 4.25214 
14.27500 	 4.34157 
14.28000 	 4.34157 
14.28500 	 4.34157 
14.29000 	 4.34157 
14.29500 	 4.34157 
14.30000 	 4.43101 
14.30500 	 4.43101 
14.31000 	 4.34157 
14.31500 	 4.43101 
14.32000 	 4.43101 
14.32500 	 4.43101 
14.33000 	 4.43101 
14.33500 	 4.34157 
14.34000 	 4.34157 
14.34500 	 4.34157 
14.35000 	 4.34157 
14.35500 	 4.34157 
14.36000 	 4.25214 
14.36500 	 4.16270 
14.37000 	 4.16270 
14.37500 	 4.16270 
14.38000 	 4.16270 
14.38500 	 4.07326 
14.39000 	 3.98383 
14.39500 	 4.07326 
14.40000 	 3.98383 
14.40500 	 3.89439 
14.41000 	 3.80496 
14.41500 	 3.71552 
14.42000 	 3.62608 
14.42500 	 3.62608 
14.43000 	 3.53665 
14.43500 	 3.44721 
14.44000 	 3.35778 
14.44500 	 3.35778 
14.45000 	 3.26834 
14.45500 	 3.17891 
14.46000 	 3.08947 
14.46500 	 3.00003 
14.47000 	 2.91060 
14.47500 	 2.82116 
14.48000 	 2.73173 
14.48500 	 2.73173 
14.49000 	 2.64229 
14.49500 	 2.55285 
14.50000 	 2.46342 
14.50500 	 2.37398 
14.51000 	 2.28455 
14.51500 	 2.19511 
14.52000 	 2.19511 
14.52500 	 2.01624 
14.53000 	 1.92680 
14.53500 	 1.92680 
14.54000 	 1.83737 
14.54500 	 1.74793 
14.55000 	 1.65849 
14.55500 	 1.56906 
14.56000 	 1.56906 
14.56500 	 1.47962 
14.57000 	 1.39019 
14.57500 	 1.39019 
14.58000 	 1.30075 
14.58500 	 1.30075 
14.59000 	 1.12188 
14.59500 	 1.12188 
14.60000 	 1.03244 
14.60500 	 0.94301 
14.61000 	 0.85357 
14.61500 	 0.85357 
14.62000 	 0.76413 
14.62500 	 0.76413 
14.63000 	 0.67470 
14.63500 	 0.58526 
14.64000 	 0.58526 
14.64500 	 0.49583 
14.65000 	 0.49583 
14.65500 	 0.40639 
14.66000 	 0.31695 
14.66500 	 0.22752 
14.67000 	 0.22752 
14.67500 	 0.13808 
14.68000 	 0.13808 
14.68500 	 0.04865 
14.69000 	 -0.04079 
14.69500 	 -0.13023 
14.70000 	 -0.13023 
14.70500 	 -0.13023 
14.71000 	 -0.21966 
14.71500 	 -0.30910 
14.72000 	 -0.30910 
14.72500 	 -0.30910 
14.73000 	 -0.39853 
14.73500 	 -0.39853 
14.74000 	 -0.39853 
14.74500 	 -0.39853 
14.75000 	 -0.48797 
14.75500 	 -0.48797 
14.76000 	 -0.48797 
14.76500 	 -0.48797 
14.77000 	 -0.48797 
14.77500 	 -0.48797 
14.78000 	 -0.39853 
14.78500 	 -0.39853 
14.79000 	 -0.39853 
14.79500 	 -0.39853 
14.80000 	 -0.39853 
14.80500 	 -0.39853 
14.81000 	 -0.39853 
14.81500 	 -0.39853 
14.82000 	 -0.39853 
14.82500 	 -0.39853 
14.83000 	 -0.39853 
14.83500 	 -0.30910 
14.84000 	 -0.30910 
14.84500 	 -0.30910 
14.85000 	 -0.30910 
14.85500 	 -0.30910 
14.86000 	 -0.21966 
14.86500 	 -0.21966 
14.87000 	 -0.21966 
14.87500 	 -0.21966 
14.88000 	 -0.21966 
14.88500 	 -0.21966 
14.89000 	 -0.21966 
14.89500 	 -0.21966 
14.90000 	 -0.21966 
14.90500 	 -0.21966 
14.91000 	 -0.21966 
14.91500 	 -0.21966 
14.92000 	 -0.21966 
14.92500 	 -0.21966 
14.93000 	 -0.13023 
14.93500 	 -0.21966 
14.94000 	 -0.13023 
14.94500 	 -0.13023 
14.95000 	 -0.13023 
14.95500 	 -0.13023 
14.96000 	 -0.13023 
14.96500 	 -0.13023 
14.97000 	 -0.13023 
14.97500 	 -0.13023 
14.98000 	 -0.04079 
14.98500 	 -0.04079 
14.99000 	 -0.13023 
14.99500 	 -0.13023 
