Time(s) 	 Volt (v) 
0.00000 	 -4.73655 
0.05000 	 -4.73655 
0.10000 	 -4.73655 
0.15000 	 -4.73655 
0.20000 	 -4.73655 
0.25000 	 -4.73655 
0.30000 	 -4.73655 
0.35000 	 -4.73655 
0.40000 	 -4.73655 
0.45000 	 -4.73655 
0.50000 	 -4.73655 
0.55000 	 -4.73655 
0.60000 	 -4.73655 
0.65000 	 -4.73655 
0.70000 	 -4.73655 
0.75000 	 -4.73655 
0.80000 	 -4.73655 
0.85000 	 -4.73655 
0.90000 	 -4.73655 
0.95000 	 -4.73655 
1.00000 	 -4.73655 
1.05000 	 -4.73655 
1.10000 	 -4.73655 
1.15000 	 -4.73655 
1.20000 	 -4.73655 
1.25000 	 -4.73655 
1.30000 	 -4.73655 
1.35000 	 -4.73655 
1.40000 	 -4.73655 
1.45000 	 -4.73655 
1.50000 	 -4.73655 
1.55000 	 -4.73655 
1.60000 	 -4.73655 
1.65000 	 -4.73655 
1.70000 	 -4.73655 
1.75000 	 -4.82995 
1.80000 	 -4.82995 
1.85000 	 -4.73655 
1.90000 	 -4.73655 
1.95000 	 -4.73655 
2.00000 	 -4.73655 
2.05000 	 -4.73655 
2.10000 	 -4.73655 
2.15000 	 -4.73655 
2.20000 	 -4.73655 
2.25000 	 -4.73655 
2.30000 	 -4.73655 
2.35000 	 -4.73655 
2.40000 	 -4.73655 
2.45000 	 -4.73655 
2.50000 	 -4.82995 
2.55000 	 -4.73655 
2.60000 	 -4.73655 
2.65000 	 -4.73655 
2.70000 	 -4.73655 
2.75000 	 -4.82995 
2.80000 	 -4.73655 
2.85000 	 -4.73655 
2.90000 	 -4.73655 
2.95000 	 -4.73655 
3.00000 	 -4.73655 
3.05000 	 -4.73655 
3.10000 	 -4.73655 
3.15000 	 -4.73655 
3.20000 	 -4.73655 
3.25000 	 -4.73655 
3.30000 	 -4.73655 
3.35000 	 -4.73655 
3.40000 	 -4.73655 
3.45000 	 -4.73655 
3.50000 	 -4.73655 
3.55000 	 -4.73655 
3.60000 	 -4.73655 
3.65000 	 -4.73655 
3.70000 	 -4.73655 
3.75000 	 -4.73655 
3.80000 	 -4.73655 
3.85000 	 -4.73655 
3.90000 	 -4.73655 
3.95000 	 -4.64314 
4.00000 	 -1.09380 
4.05000 	 6.65872 
4.10000 	 15.62548 
4.15000 	 25.24607 
4.20000 	 35.24028 
4.25000 	 43.55322 
4.30000 	 50.46510 
4.35000 	 56.90996 
4.40000 	 62.60759 
4.45000 	 67.74480 
4.50000 	 72.78861 
4.55000 	 76.71157 
4.60000 	 78.57964 
4.65000 	 79.60708 
4.70000 	 79.60708 
4.75000 	 79.60708 
4.80000 	 79.70049 
4.85000 	 79.98070 
4.90000 	 80.63453 
4.95000 	 81.28835 
5.00000 	 81.47516 
5.05000 	 81.75537 
5.10000 	 81.75537 
5.15000 	 81.75537 
5.20000 	 81.75537 
5.25000 	 81.75537 
5.30000 	 81.75537 
5.35000 	 81.66197 
5.40000 	 81.66197 
5.45000 	 81.66197 
5.50000 	 81.47516 
5.55000 	 80.82133 
5.60000 	 80.82133 
5.65000 	 81.19495 
5.70000 	 81.75537 
5.75000 	 82.12899 
5.80000 	 81.38176 
5.85000 	 81.38176 
5.90000 	 82.31579 
5.95000 	 83.06302 
6.00000 	 83.06302 
6.05000 	 82.87622 
6.10000 	 82.96962 
6.15000 	 83.34324 
6.20000 	 83.71685 
6.25000 	 84.46408 
6.30000 	 84.65089 
6.35000 	 84.83770 
6.40000 	 85.21131 
6.45000 	 85.77173 
6.50000 	 86.14535 
6.55000 	 86.42556 
6.60000 	 86.42556 
6.65000 	 86.42556 
6.70000 	 86.33216 
6.75000 	 86.33216 
6.80000 	 86.23875 
6.85000 	 86.14535 
6.90000 	 86.14535 
6.95000 	 86.14535 
7.00000 	 86.05195 
7.05000 	 86.05195 
7.10000 	 86.14535 
7.15000 	 86.23875 
7.20000 	 86.33216 
7.25000 	 86.42556 
7.30000 	 86.42556 
7.35000 	 86.42556 
7.40000 	 86.42556 
7.45000 	 86.42556 
7.50000 	 86.33216 
7.55000 	 86.33216 
7.60000 	 86.33216 
7.65000 	 86.33216 
7.70000 	 86.33216 
7.75000 	 86.42556 
7.80000 	 86.33216 
7.85000 	 86.33216 
7.90000 	 86.23875 
7.95000 	 86.23875 
8.00000 	 86.33216 
8.05000 	 86.23875 
8.10000 	 86.33216 
8.15000 	 86.23875 
8.20000 	 86.23875 
8.25000 	 86.23875 
8.30000 	 86.23875 
8.35000 	 86.33216 
8.40000 	 86.23875 
8.45000 	 86.23875 
8.50000 	 86.33216 
8.55000 	 86.23875 
8.60000 	 86.23875 
8.65000 	 86.23875 
8.70000 	 86.23875 
8.75000 	 86.23875 
8.80000 	 86.14535 
8.85000 	 86.14535 
8.90000 	 86.14535 
8.95000 	 86.23875 
9.00000 	 86.14535 
9.05000 	 86.14535 
9.10000 	 86.14535 
9.15000 	 86.14535 
9.20000 	 86.14535 
9.25000 	 86.14535 
9.30000 	 86.05195 
9.35000 	 86.05195 
9.40000 	 86.05195 
9.45000 	 85.95854 
9.50000 	 85.95854 
9.55000 	 85.95854 
9.60000 	 85.86514 
9.65000 	 85.58493 
9.70000 	 85.02450 
9.75000 	 83.62345 
9.80000 	 80.26091 
9.85000 	 74.56328 
9.90000 	 63.63503 
9.95000 	 49.43766 
10.00000 	 34.49305 
10.05000 	 15.99910 
10.10000 	 -4.36293 
10.15000 	 -22.95029 
10.20000 	 -39.20255 
10.25000 	 -50.78462 
10.30000 	 -57.60310 
10.35000 	 -59.37777 
10.40000 	 -55.73502 
10.45000 	 -47.23527 
10.50000 	 -34.15874 
10.55000 	 -17.71967 
10.60000 	 0.12045 
10.65000 	 17.30675 
10.70000 	 31.97115 
10.75000 	 42.33897 
10.80000 	 47.56958 
10.85000 	 47.47618 
10.90000 	 42.24556 
10.95000 	 32.15795 
11.00000 	 18.05398 
11.05000 	 1.70832 
11.10000 	 -15.29117 
11.15000 	 -30.60940 
11.20000 	 -42.65849 
11.25000 	 -50.50441 
11.30000 	 -53.30652 
11.35000 	 -51.34504 
11.40000 	 -44.80678 
11.45000 	 -34.06534 
11.50000 	 -20.05477 
11.55000 	 -4.45633 
11.60000 	 11.04870 
11.65000 	 24.49884 
11.70000 	 34.77326 
11.75000 	 40.47089 
11.80000 	 41.21812 
11.85000 	 37.29516 
11.90000 	 28.79542 
11.95000 	 17.11994 
12.00000 	 2.73576 
12.05000 	 -12.02204 
12.10000 	 -25.93921 
12.15000 	 -36.58724 
12.20000 	 -44.05954 
12.25000 	 -46.95506 
12.30000 	 -45.27379 
12.35000 	 -39.94978 
12.40000 	 -30.32919 
12.45000 	 -18.28010 
12.50000 	 -4.73655 
12.55000 	 8.43339 
12.60000 	 20.29567 
12.65000 	 29.07563 
12.70000 	 33.83922 
12.75000 	 34.39965 
12.80000 	 30.66349 
12.85000 	 23.37800 
12.90000 	 13.10358 
12.95000 	 0.77428 
13.00000 	 -11.83523 
13.05000 	 -23.51071 
13.10000 	 -32.66428 
13.15000 	 -38.64212 
13.20000 	 -40.97722 
13.25000 	 -39.10914 
13.30000 	 -33.87853 
13.35000 	 -25.37879 
13.40000 	 -14.63735 
13.45000 	 -3.14868 
13.50000 	 8.24658 
13.55000 	 17.77377 
13.60000 	 24.77905 
13.65000 	 28.23500 
13.70000 	 27.95478 
13.75000 	 24.03182 
13.80000 	 17.21335 
13.85000 	 7.87297 
13.90000 	 -2.58826 
13.95000 	 -13.32970 
14.00000 	 -22.38986 
14.05000 	 -29.76876 
14.10000 	 -34.06534 
14.15000 	 -34.81257 
14.20000 	 -32.47747 
14.25000 	 -27.06005 
14.30000 	 -19.30754 
14.35000 	 -10.15397 
14.40000 	 -0.53337 
14.45000 	 8.43339 
14.50000 	 15.99910 
14.55000 	 21.22971 
14.60000 	 22.72417 
14.65000 	 21.69673 
14.70000 	 17.40015 
14.75000 	 10.76848 
14.80000 	 2.73576 
14.85000 	 -6.23101 
14.90000 	 -14.63735 
14.95000 	 -21.82944 
15.00000 	 -26.87325 
15.05000 	 -29.20834 
15.10000 	 -28.92813 
15.15000 	 -26.31282 
15.20000 	 -20.98881 
15.25000 	 -13.89012 
15.30000 	 -6.04420 
15.35000 	 1.98853 
15.40000 	 8.52679 
15.45000 	 14.13102 
15.50000 	 17.11994 
15.55000 	 17.30675 
15.60000 	 14.97166 
15.65000 	 10.86189 
15.70000 	 5.07085 
15.75000 	 -1.84103 
15.80000 	 -9.12652 
15.85000 	 -15.29117 
15.90000 	 -20.61519 
15.95000 	 -23.51071 
16.00000 	 -24.35134 
16.05000 	 -23.04369 
16.10000 	 -19.68115 
16.15000 	 -14.91756 
16.20000 	 -9.12652 
16.25000 	 -2.86847 
16.30000 	 3.01597 
16.35000 	 7.87297 
16.40000 	 11.14210 
16.45000 	 12.26295 
16.50000 	 11.60912 
16.55000 	 8.99381 
16.60000 	 5.25766 
16.65000 	 0.12045 
16.70000 	 -5.20356 
16.75000 	 -10.52758 
16.80000 	 -14.91756 
16.85000 	 -17.99989 
16.90000 	 -19.21413 
16.95000 	 -19.02733 
17.00000 	 -17.06585 
17.05000 	 -14.26373 
17.10000 	 -10.06056 
17.15000 	 -5.39037 
17.20000 	 -1.00039 
17.25000 	 2.82916 
17.30000 	 5.72468 
17.35000 	 7.31254 
17.40000 	 7.40595 
17.45000 	 6.09829 
17.50000 	 3.66980 
17.55000 	 0.49407 
17.60000 	 -3.33549 
17.65000 	 -7.25845 
17.70000 	 -10.52758 
17.75000 	 -13.14289 
17.80000 	 -14.63735 
17.85000 	 -14.91756 
17.90000 	 -14.07693 
17.95000 	 -12.30225 
18.00000 	 -9.68695 
18.05000 	 -7.07164 
18.10000 	 -3.80251 
18.15000 	 -1.00039 
18.20000 	 1.42810 
18.25000 	 2.73576 
18.30000 	 3.10937 
18.35000 	 2.64235 
18.40000 	 1.42810 
18.45000 	 -0.53337 
18.50000 	 -2.77507 
18.55000 	 -5.01676 
18.60000 	 -7.25845 
18.65000 	 -9.12652 
18.70000 	 -10.15397 
18.75000 	 -10.62099 
18.80000 	 -10.24737 
18.85000 	 -9.50014 
18.90000 	 -8.09908 
18.95000 	 -7.07164 
19.00000 	 -5.11016 
19.05000 	 -3.70910 
19.10000 	 -2.40145 
19.15000 	 -1.37401 
19.20000 	 -1.09380 
19.25000 	 -1.18720 
19.30000 	 -1.46741 
19.35000 	 -2.30805 
19.40000 	 -3.24208 
19.45000 	 -4.17612 
19.50000 	 -4.92335 
19.55000 	 -5.67058 
19.60000 	 -6.41781 
19.65000 	 -6.69803 
19.70000 	 -6.60462 
19.75000 	 -6.51122 
19.80000 	 -6.32441 
19.85000 	 -5.95080 
19.90000 	 -5.76399 
19.95000 	 -5.48378 
